# Pulseq sequence file
# Created by MATLAB mr toolbox

[VERSION]
major 1
minor 3
revision 1

[DEFINITIONS]
FOV 0.25 0.25 0.003 
Name gre 

# Format of blocks:
#  #  D RF  GX  GY  GZ ADC EXT
[BLOCKS]
  1  0  1   0   0   1  0  0
  2  0  0   2   3   4  0  0
  3  1  0   0   0   0  0  0
  4  0  0   5   0   0  1  0
  5  2  0   6   7   8  0  0
  6  0  2   0   0   1  0  0
  7  0  0   2   3   4  0  0
  8  3  0   0   0   0  0  0
  9  0  0   5   0   0  2  0
 10  4  0   6   7   8  0  0
 11  0  3   0   0   1  0  0
 12  0  0   2   9   4  0  0
 13  1  0   0   0   0  0  0
 14  0  0   5   0   0  3  0
 15  2  0   6  10   8  0  0
 16  0  4   0   0   1  0  0
 17  0  0   2   9   4  0  0
 18  3  0   0   0   0  0  0
 19  0  0   5   0   0  4  0
 20  4  0   6  10   8  0  0
 21  0  5   0   0   1  0  0
 22  0  0   2  11   4  0  0
 23  1  0   0   0   0  0  0
 24  0  0   5   0   0  5  0
 25  2  0   6  12   8  0  0
 26  0  6   0   0   1  0  0
 27  0  0   2  11   4  0  0
 28  3  0   0   0   0  0  0
 29  0  0   5   0   0  6  0
 30  4  0   6  12   8  0  0
 31  0  7   0   0   1  0  0
 32  0  0   2  13   4  0  0
 33  1  0   0   0   0  0  0
 34  0  0   5   0   0  7  0
 35  2  0   6  14   8  0  0
 36  0  8   0   0   1  0  0
 37  0  0   2  13   4  0  0
 38  3  0   0   0   0  0  0
 39  0  0   5   0   0  8  0
 40  4  0   6  14   8  0  0
 41  0  9   0   0   1  0  0
 42  0  0   2  15   4  0  0
 43  1  0   0   0   0  0  0
 44  0  0   5   0   0  9  0
 45  2  0   6  16   8  0  0
 46  0 10   0   0   1  0  0
 47  0  0   2  15   4  0  0
 48  3  0   0   0   0  0  0
 49  0  0   5   0   0 10  0
 50  4  0   6  16   8  0  0
 51  0  6   0   0   1  0  0
 52  0  0   2  17   4  0  0
 53  1  0   0   0   0  0  0
 54  0  0   5   0   0  6  0
 55  2  0   6  18   8  0  0
 56  0 11   0   0   1  0  0
 57  0  0   2  17   4  0  0
 58  3  0   0   0   0  0  0
 59  0  0   5   0   0 11  0
 60  4  0   6  18   8  0  0
 61  0 12   0   0   1  0  0
 62  0  0   2  19   4  0  0
 63  1  0   0   0   0  0  0
 64  0  0   5   0   0 12  0
 65  2  0   6  20   8  0  0
 66  0 13   0   0   1  0  0
 67  0  0   2  19   4  0  0
 68  3  0   0   0   0  0  0
 69  0  0   5   0   0 13  0
 70  4  0   6  20   8  0  0
 71  0 14   0   0   1  0  0
 72  0  0   2  21   4  0  0
 73  1  0   0   0   0  0  0
 74  0  0   5   0   0 14  0
 75  2  0   6  22   8  0  0
 76  0  1   0   0   1  0  0
 77  0  0   2  21   4  0  0
 78  3  0   0   0   0  0  0
 79  0  0   5   0   0  1  0
 80  4  0   6  22   8  0  0
 81  0 15   0   0   1  0  0
 82  0  0   2  23   4  0  0
 83  1  0   0   0   0  0  0
 84  0  0   5   0   0 15  0
 85  2  0   6  24   8  0  0
 86  0 16   0   0   1  0  0
 87  0  0   2  23   4  0  0
 88  3  0   0   0   0  0  0
 89  0  0   5   0   0 16  0
 90  4  0   6  24   8  0  0
 91  0 13   0   0   1  0  0
 92  0  0   2  25   4  0  0
 93  1  0   0   0   0  0  0
 94  0  0   5   0   0 13  0
 95  2  0   6  26   8  0  0
 96  0 17   0   0   1  0  0
 97  0  0   2  25   4  0  0
 98  3  0   0   0   0  0  0
 99  0  0   5   0   0 17  0
100  4  0   6  26   8  0  0
101  0  5   0   0   1  0  0
102  0  0   2  27   4  0  0
103  1  0   0   0   0  0  0
104  0  0   5   0   0  5  0
105  2  0   6  28   8  0  0
106  0 18   0   0   1  0  0
107  0  0   2  27   4  0  0
108  3  0   0   0   0  0  0
109  0  0   5   0   0 18  0
110  4  0   6  28   8  0  0
111  0 19   0   0   1  0  0
112  0  0   2  29   4  0  0
113  1  0   0   0   0  0  0
114  0  0   5   0   0 19  0
115  2  0   6  30   8  0  0
116  0  9   0   0   1  0  0
117  0  0   2  29   4  0  0
118  3  0   0   0   0  0  0
119  0  0   5   0   0  9  0
120  4  0   6  30   8  0  0
121  0 20   0   0   1  0  0
122  0  0   2  31   4  0  0
123  1  0   0   0   0  0  0
124  0  0   5   0   0 20  0
125  2  0   6  32   8  0  0
126  0 10   0   0   1  0  0
127  0  0   2  31   4  0  0
128  3  0   0   0   0  0  0
129  0  0   5   0   0 10  0
130  4  0   6  32   8  0  0
131  0 18   0   0   1  0  0
132  0  0   2  33   4  0  0
133  1  0   0   0   0  0  0
134  0  0   5   0   0 18  0
135  2  0   6  34   8  0  0
136  0 21   0   0   1  0  0
137  0  0   2  33   4  0  0
138  3  0   0   0   0  0  0
139  0  0   5   0   0 21  0
140  4  0   6  34   8  0  0
141  0  4   0   0   1  0  0
142  0  0   2  35   4  0  0
143  1  0   0   0   0  0  0
144  0  0   5   0   0  4  0
145  2  0   6  36   8  0  0
146  0 22   0   0   1  0  0
147  0  0   2  35   4  0  0
148  3  0   0   0   0  0  0
149  0  0   5   0   0 22  0
150  4  0   6  36   8  0  0
151  0 14   0   0   1  0  0
152  0  0   2  37   4  0  0
153  1  0   0   0   0  0  0
154  0  0   5   0   0 14  0
155  2  0   6  38   8  0  0
156  0 15   0   0   1  0  0
157  0  0   2  37   4  0  0
158  3  0   0   0   0  0  0
159  0  0   5   0   0 15  0
160  4  0   6  38   8  0  0
161  0 23   0   0   1  0  0
162  0  0   2  39   4  0  0
163  1  0   0   0   0  0  0
164  0  0   5   0   0 23  0
165  2  0   6  40   8  0  0
166  0  2   0   0   1  0  0
167  0  0   2  39   4  0  0
168  3  0   0   0   0  0  0
169  0  0   5   0   0  2  0
170  4  0   6  40   8  0  0
171  0 22   0   0   1  0  0
172  0  0   2  41   4  0  0
173  1  0   0   0   0  0  0
174  0  0   5   0   0 22  0
175  2  0   6  42   8  0  0
176  0 17   0   0   1  0  0
177  0  0   2  41   4  0  0
178  3  0   0   0   0  0  0
179  0  0   5   0   0 17  0
180  4  0   6  42   8  0  0
181  0 11   0   0   1  0  0
182  0  0   2  43   4  0  0
183  1  0   0   0   0  0  0
184  0  0   5   0   0 11  0
185  2  0   6  44   8  0  0
186  0 24   0   0   1  0  0
187  0  0   2  43   4  0  0
188  3  0   0   0   0  0  0
189  0  0   5   0   0 24  0
190  4  0   6  44   8  0  0
191  0  7   0   0   1  0  0
192  0  0   2  45   4  0  0
193  1  0   0   0   0  0  0
194  0  0   5   0   0  7  0
195  2  0   6  46   8  0  0
196  0 20   0   0   1  0  0
197  0  0   2  45   4  0  0
198  3  0   0   0   0  0  0
199  0  0   5   0   0 20  0
200  4  0   6  46   8  0  0
201  0 20   0   0   1  0  0
202  0  0   2  47   4  0  0
203  1  0   0   0   0  0  0
204  0  0   5   0   0 20  0
205  2  0   6  48   8  0  0
206  0  7   0   0   1  0  0
207  0  0   2  47   4  0  0
208  3  0   0   0   0  0  0
209  0  0   5   0   0  7  0
210  4  0   6  48   8  0  0
211  0 24   0   0   1  0  0
212  0  0   2  49   4  0  0
213  1  0   0   0   0  0  0
214  0  0   5   0   0 24  0
215  2  0   6  50   8  0  0
216  0 11   0   0   1  0  0
217  0  0   2  49   4  0  0
218  3  0   0   0   0  0  0
219  0  0   5   0   0 11  0
220  4  0   6  50   8  0  0
221  0 17   0   0   1  0  0
222  0  0   2  51   4  0  0
223  1  0   0   0   0  0  0
224  0  0   5   0   0 17  0
225  2  0   6  52   8  0  0
226  0 22   0   0   1  0  0
227  0  0   2  51   4  0  0
228  3  0   0   0   0  0  0
229  0  0   5   0   0 22  0
230  4  0   6  52   8  0  0
231  0  2   0   0   1  0  0
232  0  0   2  53   4  0  0
233  1  0   0   0   0  0  0
234  0  0   5   0   0  2  0
235  2  0   6  54   8  0  0
236  0 23   0   0   1  0  0
237  0  0   2  53   4  0  0
238  3  0   0   0   0  0  0
239  0  0   5   0   0 23  0
240  4  0   6  54   8  0  0
241  0 15   0   0   1  0  0
242  0  0   2  55   4  0  0
243  1  0   0   0   0  0  0
244  0  0   5   0   0 15  0
245  2  0   6  56   8  0  0
246  0 14   0   0   1  0  0
247  0  0   2  55   4  0  0
248  3  0   0   0   0  0  0
249  0  0   5   0   0 14  0
250  4  0   6  56   8  0  0
251  0 22   0   0   1  0  0
252  0  0   2  57   4  0  0
253  1  0   0   0   0  0  0
254  0  0   5   0   0 22  0
255  2  0   6  58   8  0  0
256  0  4   0   0   1  0  0
257  0  0   2  57   4  0  0
258  3  0   0   0   0  0  0
259  0  0   5   0   0  4  0
260  4  0   6  58   8  0  0
261  0 21   0   0   1  0  0
262  0  0   2  59   4  0  0
263  1  0   0   0   0  0  0
264  0  0   5   0   0 21  0
265  2  0   6  60   8  0  0
266  0 18   0   0   1  0  0
267  0  0   2  59   4  0  0
268  3  0   0   0   0  0  0
269  0  0   5   0   0 18  0
270  4  0   6  60   8  0  0
271  0 10   0   0   1  0  0
272  0  0   2  61   4  0  0
273  1  0   0   0   0  0  0
274  0  0   5   0   0 10  0
275  2  0   6  62   8  0  0
276  0 20   0   0   1  0  0
277  0  0   2  61   4  0  0
278  3  0   0   0   0  0  0
279  0  0   5   0   0 20  0
280  4  0   6  62   8  0  0
281  0  9   0   0   1  0  0
282  0  0   2  63   4  0  0
283  1  0   0   0   0  0  0
284  0  0   5   0   0  9  0
285  2  0   6  64   8  0  0
286  0 19   0   0   1  0  0
287  0  0   2  63   4  0  0
288  3  0   0   0   0  0  0
289  0  0   5   0   0 19  0
290  4  0   6  64   8  0  0
291  0 18   0   0   1  0  0
292  0  0   2  65   4  0  0
293  1  0   0   0   0  0  0
294  0  0   5   0   0 18  0
295  2  0   6  66   8  0  0
296  0  5   0   0   1  0  0
297  0  0   2  65   4  0  0
298  3  0   0   0   0  0  0
299  0  0   5   0   0  5  0
300  4  0   6  66   8  0  0
301  0 17   0   0   1  0  0
302  0  0   2  67   4  0  0
303  1  0   0   0   0  0  0
304  0  0   5   0   0 17  0
305  2  0   6  68   8  0  0
306  0 13   0   0   1  0  0
307  0  0   2  67   4  0  0
308  3  0   0   0   0  0  0
309  0  0   5   0   0 13  0
310  4  0   6  68   8  0  0
311  0 16   0   0   1  0  0
312  0  0   2  69   4  0  0
313  1  0   0   0   0  0  0
314  0  0   5   0   0 16  0
315  2  0   6  70   8  0  0
316  0 15   0   0   1  0  0
317  0  0   2  69   4  0  0
318  3  0   0   0   0  0  0
319  0  0   5   0   0 15  0
320  4  0   6  70   8  0  0
321  0  1   0   0   1  0  0
322  0  0   2  71   4  0  0
323  1  0   0   0   0  0  0
324  0  0   5   0   0  1  0
325  2  0   6  72   8  0  0
326  0 14   0   0   1  0  0
327  0  0   2  71   4  0  0
328  3  0   0   0   0  0  0
329  0  0   5   0   0 14  0
330  4  0   6  72   8  0  0
331  0 13   0   0   1  0  0
332  0  0   2  70   4  0  0
333  1  0   0   0   0  0  0
334  0  0   5   0   0 13  0
335  2  0   6  69   8  0  0
336  0 12   0   0   1  0  0
337  0  0   2  70   4  0  0
338  3  0   0   0   0  0  0
339  0  0   5   0   0 12  0
340  4  0   6  69   8  0  0
341  0 11   0   0   1  0  0
342  0  0   2  68   4  0  0
343  1  0   0   0   0  0  0
344  0  0   5   0   0 11  0
345  2  0   6  67   8  0  0
346  0  6   0   0   1  0  0
347  0  0   2  68   4  0  0
348  3  0   0   0   0  0  0
349  0  0   5   0   0  6  0
350  4  0   6  67   8  0  0
[RF]
1      27.4293 1 2 100 0 0
2      27.4293 1 2 100 0 2.04204
3      27.4293 1 2 100 0 6.12611
4      27.4293 1 2 100 0 5.96903
5      27.4293 1 2 100 0 1.5708
6      27.4293 1 2 100 0 5.49779
7      27.4293 1 2 100 0 5.18363
8      27.4293 1 2 100 0 0.628319
9      27.4293 1 2 100 0 4.39823
10      27.4293 1 2 100 0 3.92699
11      27.4293 1 2 100 0 2.82743
12      27.4293 1 2 100 0 2.19911
13      27.4293 1 2 100 0 3.61283
14      27.4293 1 2 100 0 0.785398
15      27.4293 1 2 100 0 1.25664
16      27.4293 1 2 100 0 4.55531
17      27.4293 1 2 100 0 4.71239
18      27.4293 1 2 100 0 0.471239
19      27.4293 1 2 100 0 1.41372
20      27.4293 1 2 100 0 3.14159
21      27.4293 1 2 100 0 5.34071
22      27.4293 1 2 100 0 2.35619
23      27.4293 1 2 100 0 3.76991
24      27.4293 1 2 100 0 2.98451

# Format of trapezoid gradients:
# id amplitude rise flat fall delay
# ..      Hz/m   us   us   us    us
[TRAP]
 1       333333  60 4000  60  40
 2     -64747.5  20 1960  20   0
 3     -64646.5  20 1960  20   0
 4      -348797  60 1880  60   0
 5        40000  10 6400  10   0
 6   1.1907e+06 190  240 190   0
 7      64646.5  20 1960  20   0
 8  1.19048e+06 190  930 190   0
 9     -62311.6  10 1980  10   0
10      62311.6  10 1980  10   0
11     -60301.5  10 1980  10   0
12      60301.5  10 1980  10   0
13     -58291.5  10 1980  10   0
14      58291.5  10 1980  10   0
15     -56281.4  10 1980  10   0
16      56281.4  10 1980  10   0
17     -54271.4  10 1980  10   0
18      54271.4  10 1980  10   0
19     -52261.3  10 1980  10   0
20      52261.3  10 1980  10   0
21     -50251.3  10 1980  10   0
22      50251.3  10 1980  10   0
23     -48241.2  10 1980  10   0
24      48241.2  10 1980  10   0
25     -46231.2  10 1980  10   0
26      46231.2  10 1980  10   0
27     -44221.1  10 1980  10   0
28      44221.1  10 1980  10   0
29     -42211.1  10 1980  10   0
30      42211.1  10 1980  10   0
31       -40201  10 1980  10   0
32        40201  10 1980  10   0
33       -38191  10 1980  10   0
34        38191  10 1980  10   0
35     -36180.9  10 1980  10   0
36      36180.9  10 1980  10   0
37     -34170.9  10 1980  10   0
38      34170.9  10 1980  10   0
39     -32160.8  10 1980  10   0
40      32160.8  10 1980  10   0
41     -30150.8  10 1980  10   0
42      30150.8  10 1980  10   0
43     -28140.7  10 1980  10   0
44      28140.7  10 1980  10   0
45     -26130.7  10 1980  10   0
46      26130.7  10 1980  10   0
47     -24120.6  10 1980  10   0
48      24120.6  10 1980  10   0
49     -22110.6  10 1980  10   0
50      22110.6  10 1980  10   0
51     -20100.5  10 1980  10   0
52      20100.5  10 1980  10   0
53     -18090.5  10 1980  10   0
54      18090.5  10 1980  10   0
55     -16080.4  10 1980  10   0
56      16080.4  10 1980  10   0
57     -14070.4  10 1980  10   0
58      14070.4  10 1980  10   0
59     -12060.3  10 1980  10   0
60      12060.3  10 1980  10   0
61     -10050.3  10 1980  10   0
62      10050.3  10 1980  10   0
63      -8040.2  10 1980  10   0
64       8040.2  10 1980  10   0
65     -6030.15  10 1980  10   0
66      6030.15  10 1980  10   0
67      -4020.1  10 1980  10   0
68       4020.1  10 1980  10   0
69     -2010.05  10 1980  10   0
70      2010.05  10 1980  10   0
71            0  10 1980  10   0
72           -0  10 1980  10   0

# Format of ADC events:
# id num dwell delay freq phase
# ..  ..    ns    us   Hz   rad
[ADC]
1 64 100000 10 0 0
2 64 100000 10 0 2.04204
3 64 100000 10 0 6.12611
4 64 100000 10 0 5.96903
5 64 100000 10 0 1.5708
6 64 100000 10 0 5.49779
7 64 100000 10 0 5.18363
8 64 100000 10 0 0.628319
9 64 100000 10 0 4.39823
10 64 100000 10 0 3.92699
11 64 100000 10 0 2.82743
12 64 100000 10 0 2.19911
13 64 100000 10 0 3.61283
14 64 100000 10 0 0.785398
15 64 100000 10 0 1.25664
16 64 100000 10 0 4.55531
17 64 100000 10 0 4.71239
18 64 100000 10 0 0.471239
19 64 100000 10 0 1.41372
20 64 100000 10 0 3.14159
21 64 100000 10 0 5.34071
22 64 100000 10 0 2.35619
23 64 100000 10 0 3.76991
24 64 100000 10 0 2.98451

# Format of delays:
# id delay (us)
[DELAYS]
1 120
2 87310
3 2570
4 84850

# Sequence Shapes
[SHAPES]

shape_id 1
num_samples 4020
0
0
3
1e-07
0
1e-07
0
1e-07
1e-07
1
2e-07
2e-07
0
1e-07
3e-07
2e-07
3e-07
3e-07
0
4e-07
4e-07
1
5e-07
5e-07
0
6e-07
6e-07
1
8e-07
7e-07
8e-07
9e-07
1e-06
9e-07
1.1e-06
1.1e-06
0
1.2e-06
1.3e-06
1.3e-06
0
1.4e-06
1.5e-06
1.5e-06
0
1.7e-06
1.7e-06
0
1.8e-06
1.8e-06
0
2e-06
2.1e-06
2.1e-06
0
2.2e-06
2.4e-06
2.4e-06
0
2.5e-06
2.6e-06
2.7e-06
2.9e-06
2.9e-06
0
3e-06
3.2e-06
3.2e-06
0
3.4e-06
3.5e-06
3.6e-06
3.7e-06
3.9e-06
4e-06
4.1e-06
4.2e-06
4.3e-06
4.5e-06
4.6e-06
4.8e-06
4.9e-06
5e-06
5.2e-06
5.3e-06
5.4e-06
5.6e-06
5.8e-06
5.9e-06
6.1e-06
6.2e-06
6.3e-06
6.6e-06
6.6e-06
0
6.9e-06
7e-06
7.2e-06
7.3e-06
7.5e-06
7.7e-06
7.9e-06
8e-06
8.2e-06
8.4e-06
8.6e-06
8.8e-06
8.9e-06
9.2e-06
9.3e-06
9.5e-06
9.7e-06
9.9e-06
1.01e-05
1.03e-05
1.05e-05
1.07e-05
1.09e-05
1.11e-05
1.13e-05
1.16e-05
1.17e-05
1.19e-05
1.22e-05
1.24e-05
1.26e-05
1.28e-05
1.31e-05
1.33e-05
1.35e-05
1.37e-05
1.4e-05
1.42e-05
1.44e-05
1.47e-05
1.49e-05
1.51e-05
1.54e-05
1.56e-05
1.59e-05
1.61e-05
1.64e-05
1.66e-05
1.68e-05
1.72e-05
1.73e-05
1.77e-05
1.79e-05
1.81e-05
1.84e-05
1.87e-05
1.9e-05
1.92e-05
1.95e-05
1.97e-05
2e-05
2.03e-05
2.06e-05
2.09e-05
2.11e-05
2.14e-05
2.17e-05
2.2e-05
2.23e-05
2.26e-05
2.28e-05
2.31e-05
2.35e-05
2.37e-05
2.4e-05
2.44e-05
2.46e-05
2.49e-05
2.52e-05
2.55e-05
2.59e-05
2.61e-05
2.65e-05
2.67e-05
2.71e-05
2.74e-05
2.77e-05
2.8e-05
2.83e-05
2.87e-05
2.9e-05
2.93e-05
2.96e-05
2.99e-05
3.03e-05
3.06e-05
3.09e-05
3.13e-05
3.16e-05
3.19e-05
3.23e-05
3.26e-05
3.29e-05
3.33e-05
3.36e-05
3.4e-05
3.43e-05
3.47e-05
3.5e-05
3.53e-05
3.57e-05
3.61e-05
3.64e-05
3.67e-05
3.71e-05
3.75e-05
3.78e-05
3.82e-05
3.85e-05
3.89e-05
3.93e-05
3.96e-05
4e-05
4.03e-05
4.07e-05
4.11e-05
4.15e-05
4.18e-05
4.22e-05
4.26e-05
4.29e-05
4.33e-05
4.37e-05
4.41e-05
4.44e-05
4.48e-05
4.52e-05
4.56e-05
4.6e-05
4.63e-05
4.68e-05
4.71e-05
4.75e-05
4.79e-05
4.83e-05
4.86e-05
4.91e-05
4.95e-05
4.98e-05
5.02e-05
5.07e-05
5.1e-05
5.14e-05
5.18e-05
5.22e-05
5.26e-05
5.3e-05
5.35e-05
5.38e-05
5.42e-05
5.46e-05
5.5e-05
5.54e-05
5.58e-05
5.62e-05
5.67e-05
5.7e-05
5.75e-05
5.78e-05
5.83e-05
5.86e-05
5.91e-05
5.95e-05
5.99e-05
6.03e-05
6.07e-05
6.12e-05
6.15e-05
6.2e-05
6.23e-05
6.28e-05
6.32e-05
6.36e-05
6.41e-05
6.44e-05
6.49e-05
6.53e-05
6.57e-05
6.61e-05
6.65e-05
6.7e-05
6.74e-05
6.78e-05
6.82e-05
6.86e-05
6.91e-05
6.94e-05
6.99e-05
7.03e-05
7.08e-05
7.11e-05
7.16e-05
7.2e-05
7.25e-05
7.28e-05
7.33e-05
7.37e-05
7.41e-05
7.45e-05
7.5e-05
7.54e-05
7.58e-05
7.62e-05
7.67e-05
7.7e-05
7.75e-05
7.8e-05
7.83e-05
7.88e-05
7.92e-05
7.96e-05
8e-05
8.05e-05
8.09e-05
8.13e-05
8.17e-05
8.21e-05
8.26e-05
8.3e-05
8.34e-05
8.38e-05
8.43e-05
8.47e-05
8.51e-05
8.55e-05
8.59e-05
8.64e-05
8.67e-05
8.72e-05
8.76e-05
8.81e-05
8.84e-05
8.89e-05
8.93e-05
8.96e-05
9.02e-05
9.05e-05
9.09e-05
9.14e-05
9.17e-05
9.22e-05
9.26e-05
9.3e-05
9.34e-05
9.38e-05
9.43e-05
9.46e-05
9.51e-05
9.54e-05
9.59e-05
9.62e-05
9.67e-05
9.71e-05
9.75e-05
9.79e-05
9.82e-05
9.87e-05
9.91e-05
9.95e-05
9.99e-05
0.0001003
0.0001006
0.0001011
0.0001015
0.0001018
0.0001023
0.0001026
0.0001031
0.0001034
0.0001038
0.0001042
0.0001046
0.000105
0.0001053
0.0001058
0.0001061
0.0001065
0.0001069
0.0001072
0.0001077
0.000108
0.0001083
0.0001088
0.0001091
0.0001095
0.0001099
0.0001102
0.0001106
0.000111
0.0001113
0.0001117
0.000112
0.0001124
0.0001128
0.0001131
0.0001135
0.0001138
0.0001142
0.0001145
0.0001148
0.0001152
0.0001156
0.0001159
0.0001162
0.0001166
0.0001169
0.0001173
0.0001176
0.0001179
0.0001182
0.0001186
0.0001189
0.0001192
0.0001196
0.0001198
0.0001202
0.0001205
0.0001208
0.0001211
0.0001215
0.0001217
0.0001221
0.0001223
0.0001227
0.0001229
0.0001233
0.0001236
0.0001238
0.0001241
0.0001245
0.0001247
0.000125
0.0001253
0.0001255
0.0001259
0.0001261
0.0001264
0.0001266
0.000127
0.0001272
0.0001274
0.0001277
0.000128
0.0001283
0.0001284
0.0001288
0.000129
0.0001292
0.0001295
0.0001297
0.00013
0.0001302
0.0001304
0.0001307
0.0001309
0.0001311
0.0001313
0.0001316
0.0001317
0.000132
0.0001322
0.0001324
0.0001327
0.0001328
0.000133
0.0001332
0.0001334
0.0001336
0.0001338
0.000134
0.0001342
0.0001343
0.0001345
0.0001347
0.0001349
0.000135
0.0001352
0.0001354
0.0001355
0.0001356
0.0001359
0.0001359
0
0.0001361
0.0001363
0.0001364
0.0001365
0.0001367
0.0001368
0.0001369
0.0001371
0.0001371
0
0.0001373
0.0001374
0.0001375
0.0001376
0.0001377
0.0001378
0.0001379
0.000138
0.0001381
0.0001382
0.0001382
0
0.0001383
0.0001384
0.0001385
0.0001385
0
0.0001386
0.0001387
0.0001387
0
0.0001388
0.0001388
0
0.0001389
0.0001389
1
0.000139
0.000139
2
0.0001391
0.0001391
6
0.000139
0.0001391
0.000139
0.000139
1
0.0001389
0.0001389
1
0.0001388
0.0001388
0
0.0001387
0.0001386
0.0001386
1
0.0001384
0.0001384
0
0.0001383
0.0001382
0.0001381
0.000138
0.000138
0
0.0001378
0.0001377
0.0001376
0.0001375
0.0001374
0.0001373
0.0001371
0.000137
0.0001369
0.0001367
0.0001366
0.0001364
0.0001363
0.0001361
0.0001359
0.0001358
0.0001356
0.0001354
0.0001352
0.0001351
0.0001348
0.0001347
0.0001345
0.0001342
0.0001341
0.0001338
0.0001336
0.0001334
0.0001331
0.0001329
0.0001327
0.0001325
0.0001321
0.000132
0.0001316
0.0001314
0.0001312
0.0001308
0.0001306
0.0001303
0.00013
0.0001297
0.0001294
0.0001291
0.0001288
0.0001285
0.0001282
0.0001278
0.0001275
0.0001272
0.0001268
0.0001265
0.0001262
0.0001258
0.0001254
0.000125
0.0001247
0.0001243
0.000124
0.0001235
0.0001232
0.0001227
0.0001224
0.0001219
0.0001215
0.0001212
0.0001206
0.0001203
0.0001198
0.0001194
0.0001189
0.0001185
0.0001181
0.0001175
0.0001171
0.0001167
0.0001161
0.0001157
0.0001152
0.0001146
0.0001142
0.0001137
0.0001132
0.0001126
0.0001121
0.0001116
0.0001111
0.0001105
0.00011
0.0001094
0.0001089
0.0001083
0.0001078
0.0001071
0.0001066
0.000106
0.0001054
0.0001049
0.0001042
0.0001036
0.000103
0.0001024
0.0001017
0.0001011
0.0001005
9.99e-05
9.92e-05
9.85e-05
9.79e-05
9.72e-05
9.66e-05
9.58e-05
9.52e-05
9.45e-05
9.38e-05
9.31e-05
9.24e-05
9.17e-05
9.1e-05
9.02e-05
8.95e-05
8.88e-05
8.8e-05
8.73e-05
8.65e-05
8.58e-05
8.5e-05
8.42e-05
8.35e-05
8.26e-05
8.19e-05
8.11e-05
8.03e-05
7.94e-05
7.87e-05
7.78e-05
7.7e-05
7.62e-05
7.53e-05
7.45e-05
7.37e-05
7.28e-05
7.19e-05
7.1e-05
7.02e-05
6.93e-05
6.84e-05
6.75e-05
6.66e-05
6.57e-05
6.48e-05
6.39e-05
6.29e-05
6.2e-05
6.11e-05
6.02e-05
5.91e-05
5.83e-05
5.72e-05
5.63e-05
5.54e-05
5.43e-05
5.34e-05
5.23e-05
5.14e-05
5.04e-05
4.93e-05
4.83e-05
4.73e-05
4.63e-05
4.53e-05
4.42e-05
4.31e-05
4.21e-05
4.1e-05
4e-05
3.89e-05
3.78e-05
3.67e-05
3.56e-05
3.45e-05
3.34e-05
3.23e-05
3.12e-05
3.01e-05
2.89e-05
2.78e-05
2.67e-05
2.55e-05
2.43e-05
2.32e-05
2.2e-05
2.08e-05
1.97e-05
1.84e-05
1.73e-05
1.6e-05
1.49e-05
1.36e-05
1.25e-05
1.12e-05
9.9e-06
8.7e-06
7.5e-06
6.3e-06
4.9e-06
3.7e-06
2.5e-06
1.1e-06
-1e-07
-1.4e-06
-2.7e-06
-4.1e-06
-5.3e-06
-6.6e-06
-8e-06
-9.3e-06
-1.06e-05
-1.2e-05
-1.33e-05
-1.46e-05
-1.61e-05
-1.74e-05
-1.87e-05
-2.02e-05
-2.15e-05
-2.29e-05
-2.43e-05
-2.58e-05
-2.71e-05
-2.85e-05
-3e-05
-3.14e-05
-3.29e-05
-3.42e-05
-3.58e-05
-3.72e-05
-3.86e-05
-4.01e-05
-4.16e-05
-4.31e-05
-4.45e-05
-4.61e-05
-4.75e-05
-4.9e-05
-5.06e-05
-5.21e-05
-5.36e-05
-5.51e-05
-5.67e-05
-5.82e-05
-5.97e-05
-6.14e-05
-6.28e-05
-6.45e-05
-6.6e-05
-6.76e-05
-6.92e-05
-7.07e-05
-7.24e-05
-7.4e-05
-7.56e-05
-7.72e-05
-7.88e-05
-8.05e-05
-8.21e-05
-8.37e-05
-8.54e-05
-8.7e-05
-8.87e-05
-9.04e-05
-9.2e-05
-9.37e-05
-9.54e-05
-9.71e-05
-9.88e-05
-0.0001005
-0.0001022
-0.0001039
-0.0001057
-0.0001074
-0.0001091
-0.0001108
-0.0001126
-0.0001143
-0.0001161
-0.0001179
-0.0001196
-0.0001214
-0.0001232
-0.000125
-0.0001267
-0.0001286
-0.0001304
-0.0001322
-0.000134
-0.0001358
-0.0001376
-0.0001395
-0.0001414
-0.0001431
-0.0001451
-0.0001469
-0.0001487
-0.0001506
-0.0001525
-0.0001544
-0.0001563
-0.0001582
-0.00016
-0.000162
-0.0001639
-0.0001658
-0.0001677
-0.0001696
-0.0001716
-0.0001735
-0.0001755
-0.0001774
-0.0001794
-0.0001813
-0.0001833
-0.0001853
-0.0001872
-0.0001892
-0.0001913
-0.0001932
-0.0001952
-0.0001972
-0.0001993
-0.0002013
-0.0002032
-0.0002053
-0.0002074
-0.0002094
-0.0002114
-0.0002135
-0.0002155
-0.0002176
-0.0002197
-0.0002217
-0.0002238
-0.0002259
-0.000228
-0.0002301
-0.0002322
-0.0002343
-0.0002364
-0.0002385
-0.0002406
-0.0002427
-0.0002449
-0.000247
-0.0002492
-0.0002513
-0.0002534
-0.0002556
-0.0002578
-0.0002599
-0.0002621
-0.0002643
-0.0002665
-0.0002686
-0.0002709
-0.000273
-0.0002752
-0.0002775
-0.0002796
-0.0002819
-0.0002841
-0.0002863
-0.0002885
-0.0002908
-0.000293
-0.0002953
-0.0002975
-0.0002998
-0.000302
-0.0003043
-0.0003066
-0.0003088
-0.0003111
-0.0003134
-0.0003157
-0.0003179
-0.0003203
-0.0003226
-0.0003248
-0.0003272
-0.0003295
-0.0003318
-0.0003342
-0.0003364
-0.0003388
-0.0003411
-0.0003435
-0.0003458
-0.0003482
-0.0003505
-0.0003529
-0.0003552
-0.0003576
-0.00036
-0.0003624
-0.0003647
-0.0003671
-0.0003695
-0.0003719
-0.0003743
-0.0003767
-0.000379
-0.0003815
-0.0003839
-0.0003864
-0.0003887
-0.0003912
-0.0003936
-0.000396
-0.0003984
-0.0004009
-0.0004034
-0.0004058
-0.0004082
-0.0004107
-0.0004131
-0.0004156
-0.0004181
-0.0004205
-0.000423
-0.0004255
-0.000428
-0.0004304
-0.000433
-0.0004354
-0.0004379
-0.0004404
-0.0004429
-0.0004455
-0.0004479
-0.0004504
-0.0004529
-0.0004555
-0.000458
-0.0004605
-0.000463
-0.0004656
-0.0004681
-0.0004706
-0.0004732
-0.0004757
-0.0004782
-0.0004808
-0.0004834
-0.0004859
-0.0004884
-0.0004911
-0.0004935
-0.0004962
-0.0004987
0.0005013
0.0005038
0.0005065
0.000509
0.0005116
0.0005142
0.0005167
0.0005194
0.0005219
0.0005246
0.0005271
0.0005298
0.0005323
0.000535
0.0005375
0.0005402
0.0005428
0.0005453
0.0005481
0.0005506
0.0005532
0.0005559
0.0005585
0.0005611
0.0005637
0.0005664
0.000569
0.0005717
0.0005743
0.0005769
0.0005796
0.0005822
0.0005848
0.0005875
0.0005902
0.0005928
0.0005954
0.0005982
0.0006007
0.0006034
0.0006061
0.0006088
0.0006114
0.000614
0.0006168
0.0006194
0.000622
0.0006248
0.0006274
0.00063
0.0006328
0.0006354
0.0006381
0.0006408
0.0006434
0.0006462
0.0006488
0.0006515
0.0006542
0.0006568
0.0006596
0.0006622
0.0006649
0.0006677
0.0006702
0.000673
0.0006757
0.0006784
0.000681
0.0006838
0.0006864
0.0006892
0.0006918
0.0006945
0.0006972
0.0006999
0.0007027
0.0007053
0.000708
0.0007107
0.0007134
0.0007161
0.0007188
0.0007214
0.0007242
0.0007269
0.0007296
0.0007323
0.000735
0.0007377
0.0007404
0.000743
0.0007458
0.0007485
0.0007512
0.0007539
0.0007565
0.0007593
0.000762
0.0007647
0.0007673
0.0007701
0.0007727
0.0007755
0.0007781
0.0007809
0.0007835
0.0007863
0.0007889
0.0007916
0.0007943
0.000797
0.0007997
0.0008024
0.000805
0.0008078
0.0008104
0.0008131
0.0008159
0.0008184
0.0008212
0.0008239
0.0008265
0.0008292
0.0008319
0.0008346
0.0008372
0.00084
0.0008426
0.0008452
0.000848
0.0008506
0.0008532
0.000856
0.0008586
0.0008612
0.000864
0.0008665
0.0008693
0.0008719
0.0008745
0.0008772
0.0008799
0.0008825
0.0008851
0.0008878
0.0008904
0.0008931
0.0008957
0.0008984
0.0009009
0.0009037
0.0009062
0.0009089
0.0009115
0.0009141
0.0009167
0.0009194
0.000922
0.0009246
0.0009272
0.0009298
0.0009324
0.000935
0.0009376
0.0009402
0.0009428
0.0009454
0.000948
0.0009506
0.0009531
0.0009558
0.0009583
0.0009609
0.0009635
0.000966
0.0009686
0.0009712
0.0009737
0.0009763
0.0009788
0.0009814
0.0009839
0.0009865
0.000989
0.0009915
0.0009941
0.0009966
0.0009992
0.0010016
0.0010042
0.0010067
0.0010092
0.0010117
0.0010142
0.0010167
0.0010192
0.0010218
0.0010241
0.0010267
0.0010292
0.0010316
0.0010341
0.0010366
0.001039
0.0010415
0.001044
0.0010464
0.0010489
0.0010512
0.0010538
0.0010562
0.0010586
0.001061
0.0010634
0.0010659
0.0010683
0.0010707
0.0010731
0.0010754
0.0010779
0.0010803
0.0010826
0.0010851
0.0010874
0.0010897
0.0010922
0.0010945
0.0010968
0.0010992
0.0011016
0.0011039
0.0011062
0.0011085
0.0011109
0.0011132
0.0011155
0.0011178
0.0011201
0.0011225
0.0011247
0.0011269
0.0011293
0.0011316
0.0011338
0.0011361
0.0011383
0.0011406
0.0011428
0.0011451
0.0011473
0.0011496
0.0011517
0.001154
0.0011562
0.0011584
0.0011606
0.0011628
0.001165
0.0011672
0.0011693
0.0011715
0.0011737
0.0011758
0.001178
0.0011801
0.0011823
0.0011844
0.0011865
0.0011886
0.0011908
0.0011929
0.0011949
0.0011971
0.0011991
0.0012012
0.0012033
0.0012053
0.0012074
0.0012095
0.0012115
0.0012135
0.0012156
0.0012176
0.0012196
0.0012217
0.0012236
0.0012256
0.0012276
0.0012296
0.0012316
0.0012335
0.0012355
0.0012375
0.0012394
0.0012413
0.0012433
0.0012452
0.0012471
0.001249
0.0012509
0.0012528
0.0012547
0.0012566
0.0012584
0.0012603
0.0012622
0.001264
0.0012659
0.0012676
0.0012695
0.0012714
0.0012731
0.0012749
0.0012767
0.0012785
0.0012803
0.0012821
0.0012838
0.0012855
0.0012873
0.0012891
0.0012907
0.0012925
0.0012942
0.0012959
0.0012976
0.0012992
0.001301
0.0013026
0.0013043
0.0013059
0.0013076
0.0013092
0.0013108
0.0013125
0.001314
0.0013157
0.0013172
0.0013188
0.0013205
0.0013219
0.0013235
0.0013251
0.0013266
0.0013281
0.0013297
0.0013312
0.0013326
0.0013342
0.0013356
0.0013371
0.0013386
0.00134
0.0013415
0.0013429
0.0013444
0.0013458
0.0013471
0.0013486
0.00135
0.0013513
0.0013527
0.0013541
0.0013554
0.0013568
0.0013581
0.0013595
0.0013607
0.0013621
0.0013633
0.0013646
0.001366
0.0013671
0.0013685
0.0013696
0.001371
0.0013721
0.0013733
0.0013746
0.0013758
0.0013769
0.0013781
0.0013793
0.0013805
0.0013816
0.0013827
0.0013839
0.0013849
0.0013861
0.0013872
0.0013882
0.0013894
0.0013904
0.0013914
0.0013925
0.0013935
0.0013946
0.0013956
0.0013965
0.0013976
0.0013985
0.0013996
0.0014004
0.0014015
0.0014023
0.0014033
0.0014042
0.0014052
0.001406
0.0014069
0.0014078
0.0014086
0.0014095
0.0014103
0.0014112
0.001412
0.0014128
0.0014136
0.0014144
0.0014152
0.0014159
0.0014167
0.0014174
0.0014182
0.0014189
0.0014196
0.0014203
0.001421
0.0014217
0.0014223
0.001423
0.0014237
0.0014243
0.0014249
0.0014255
0.0014261
0.0014267
0.0014273
0.0014278
0.0014284
0.001429
0.0014294
0.00143
0.0014305
0.001431
0.0014315
0.001432
0.0014324
0.0014329
0.0014333
0.0014338
0.0014341
0.0014346
0.001435
0.0014353
0.0014357
0.0014361
0.0014364
0.0014368
0.0014371
0.0014373
0.0014377
0.001438
0.0014383
0.0014385
0.0014388
0.001439
0.0014392
0.0014395
0.0014397
0.0014399
0.00144
0.0014402
0.0014404
0.0014405
0.0014407
0.0014407
0
0.0014409
0.001441
0.0014411
0.0014411
0
0.0014413
0.0014412
0.0014413
0.0014413
0
0.0014414
0.0014413
0.0014413
2
0.0014412
0.0014412
0
0.0014411
0.001441
0.0014409
0.0014408
0.0014407
0.0014406
0.0014404
0.0014402
0.0014401
0.0014399
0.0014397
0.0014395
0.0014393
0.001439
0.0014388
0.0014386
0.0014383
0.001438
0.0014377
0.0014374
0.0014371
0.0014367
0.0014364
0.0014361
0.0014357
0.0014353
0.0014349
0.0014345
0.0014341
0.0014337
0.0014332
0.0014328
0.0014323
0.0014318
0.0014314
0.0014308
0.0014303
0.0014298
0.0014292
0.0014287
0.0014281
0.0014276
0.0014269
0.0014263
0.0014258
0.001425
0.0014245
0.0014238
0.0014231
0.0014224
0.0014218
0.001421
0.0014204
0.0014195
0.0014189
0.0014181
0.0014173
0.0014165
0.0014158
0.0014149
0.0014141
0.0014133
0.0014125
0.0014116
0.0014107
0.0014098
0.0014089
0.0014081
0.0014071
0.0014061
0.0014053
0.0014042
0.0014033
0.0014023
0.0014013
0.0014003
0.0013993
0.0013983
0.0013971
0.0013962
0.001395
0.001394
0.0013929
0.0013918
0.0013906
0.0013895
0.0013884
0.0013872
0.001386
0.0013848
0.0013836
0.0013825
0.0013811
0.00138
0.0013787
0.0013774
0.0013762
0.0013749
0.0013736
0.0013722
0.001371
0.0013696
0.0013682
0.0013669
0.0013655
0.0013641
0.0013627
0.0013613
0.0013599
0.0013584
0.001357
0.0013555
0.001354
0.0013526
0.001351
0.0013495
0.001348
0.0013465
0.0013449
0.0013433
0.0013418
0.0013401
0.0013386
0.0013369
0.0013353
0.0013337
0.001332
0.0013304
0.0013287
0.001327
0.0013252
0.0013236
0.0013219
0.0013201
0.0013183
0.0013166
0.0013148
0.001313
0.0013112
0.0013094
0.0013076
0.0013057
0.0013039
0.001302
0.0013001
0.0012983
0.0012963
0.0012944
0.0012925
0.0012906
0.0012886
0.0012867
0.0012847
0.0012826
0.0012807
0.0012787
0.0012767
0.0012746
0.0012726
0.0012705
0.0012684
0.0012664
0.0012642
0.0012622
0.00126
0.0012579
0.0012557
0.0012536
0.0012514
0.0012493
