# Pulseq sequence file
# Created by MATLAB mr toolbox

[VERSION]
major 1
minor 4
revision 1

[DEFINITIONS]
AdcRasterTime 1e-07 
BlockDurationRaster 1e-05 
GradientRasterTime 1e-05 
RadiofrequencyRasterTime 1e-06 

# Format of blocks:
# NUM DUR RF  GX  GY  GZ  ADC  EXT
[BLOCKS]
 1 100   1   0   0   0  0  0
 2 100000   0   0   0   0  0  0
 3 200   2   0   0   0  0  0
 4 100000   0   0   0   0  0  0
 5 100   3   0   0   0  0  0
 6 100000   0   0   0   0  0  0
 7 100   3   0   0   0  0  0
 8 100000   0   0   0   0  0  0
 9 200   4   0   0   0  0  0
10 100000   0   0   0   0  0  0
11 100   5   0   0   0  0  0
12 100000   0   0   0   0  0  0
13 100   6   0   0   0  0  0
14 100000   0   0   0   0  0  0
15 100   7   0   0   0  0  0

# Format of RF events:
# id amplitude mag_id phase_id time_shape_id delay freq phase
# ..        Hz   ....     ....          ....    us   Hz   rad
[RF]
1      477.543 1 2 0 0 0 0
2      477.543 1 2 0 1000 0 0
3      750.122 1 2 0 0 0 0
4      375.063 3 4 0 0 0 1.5708
5      750.122 1 2 0 0 1000 1.5708
6      316.492 5 2 0 0 0 0
7      772.873 6 2 0 0 0 0

# Sequence Shapes
[SHAPES]

shape_id 1
num_samples 1000
0.000863560755
0.000888275586
0.000913646081
0.000939688055
0.000966417662
0.000993851395
0.0010220061
0.00105089896
0.00108054754
0.00111096976
0.00114218391
0.00117420866
0.00120706306
0.00124076657
0.00127533902
0.00131080066
0.00134717216
0.00138447458
0.00142272943
0.00146195864
0.00150218458
0.00154343005
0.00158571833
0.00162907313
0.00167351865
0.00171907956
0.00176578098
0.00181364856
0.00186270841
0.00191298718
0.00196451199
0.0020173105
0.00207141089
0.00212684187
0.00218363271
0.0022418132
0.00230141369
0.00236246512
0.00242499897
0.00248904732
0.00255464283
0.00262181876
0.00269060897
0.00276104793
0.00283317073
0.0029070131
0.0029826114
0.00306000262
0.00313922442
0.00322031512
0.00330331371
0.00338825985
0.00347519389
0.00356415688
0.00365519058
0.00374833743
0.00384364063
0.00394114409
0.00404089245
0.0041429311
0.0042473062
0.00435406465
0.00446325414
0.00457492313
0.00468912086
0.00480589738
0.00492530355
0.00504739102
0.00517221228
0.00529982065
0.00543027028
0.00556361616
0.00569991417
0.005839221
0.00598159425
0.00612709239
0.00627577478
0.00642770166
0.0065829342
0.00674153445
0.0069035654
0.00706909096
0.00723817597
0.00741088623
0.00758728847
0.00776745038
0.00795144063
0.00813932883
0.00833118559
0.00852708251
0.00872709218
0.00893128816
0.00913974506
0.00935253846
0.00956974499
0.0097914423
0.010017709
0.0102486249
0.0104842707
0.0107247282
0.0109700803
0.0112204108
0.0114758047
0.0117363481
0.0120021281
0.0122732328
0.0125497516
0.0128317748
0.0131193938
0.0134127012
0.0137117905
0.0140167566
0.0143276953
0.0146447035
0.0149678792
0.0152973217
0.015633131
0.0159754087
0.0163242573
0.0166797802
0.0170420823
0.0174112693
0.0177874483
0.0181707272
0.0185612152
0.0189590227
0.0193642611
0.0197770427
0.0201974814
0.0206256917
0.0210617895
0.0215058917
0.0219581165
0.0224185828
0.0228874109
0.023364722
0.0238506386
0.0243452841
0.024848783
0.0253612609
0.0258828443
0.026413661
0.0269538397
0.0275035101
0.028062803
0.0286318502
0.0292107844
0.0297997394
0.03039885
0.031008252
0.0316280819
0.0322584776
0.0328995775
0.0335515212
0.0342144491
0.0348885025
0.0355738236
0.0362705555
0.0369788421
0.0376988281
0.0384306591
0.0391744816
0.0399304425
0.04069869
0.0414793726
0.0422726397
0.0430786414
0.0438975286
0.0447294526
0.0455745656
0.0464330202
0.0473049699
0.0481905683
0.0490899701
0.05000333
0.0509308037
0.0518725469
0.0528287161
0.0537994681
0.0547849599
0.0557853492
0.0568007938
0.0578314519
0.0588774818
0.0599390423
0.0610162923
0.0621093907
0.0632184968
0.0643437699
0.0654853694
0.0666434546
0.067818185
0.06900972
0.0702182189
0.0714438408
0.0726867449
0.0739470899
0.0752250346
0.0765207373
0.0778343561
0.0791660488
0.0805159725
0.0818842844
0.0832711407
0.0846766974
0.0861011098
0.0875445328
0.0890071203
0.0904890257
0.0919904017
0.0935114002
0.0950521721
0.0966128676
0.0981936359
0.099794625
0.101415982
0.103057854
0.104720384
0.106403717
0.108107996
0.109833361
0.111579952
0.113347908
0.115137366
0.116948461
0.118781328
0.120636098
0.122512901
0.124411868
0.126333125
0.128276797
0.130243008
0.132231879
0.13424353
0.136278077
0.138335636
0.140416321
0.142520241
0.144647505
0.146798219
0.148972487
0.15117041
0.153392086
0.155637612
0.157907081
0.160200583
0.162518206
0.164860036
0.167226154
0.169616639
0.172031568
0.174471013
0.176935044
0.179423728
0.181937128
0.184475304
0.187038312
0.189626207
0.192239036
0.194876847
0.197539682
0.20022758
0.202940575
0.205678699
0.208441978
0.211230438
0.214044095
0.216882967
0.219747064
0.222636394
0.225550958
0.228490757
0.231455783
0.234446028
0.237461475
0.240502107
0.2435679
0.246658825
0.249774849
0.252915936
0.256082043
0.259273122
0.262489122
0.265729986
0.268995651
0.272286052
0.275601117
0.278940768
0.282304923
0.285693496
0.289106394
0.292543518
0.296004767
0.299490032
0.302999198
0.306532148
0.310088755
0.313668891
0.31727242
0.320899201
0.324549086
0.328221923
0.331917556
0.335635819
0.339376543
0.343139554
0.346924671
0.350731707
0.354560469
0.35841076
0.362282375
0.366175105
0.370088733
0.374023039
0.377977795
0.381952767
0.385947716
0.389962396
0.393996558
0.398049943
0.402122288
0.406213325
0.410322779
0.414450369
0.418595808
0.422758804
0.426939057
0.431136265
0.435350116
0.439580293
0.443826476
0.448088336
0.452365539
0.456657746
0.460964611
0.465285783
0.469620906
0.473969616
0.478331546
0.482706321
0.487093563
0.491492885
0.495903897
0.500326204
0.504759403
0.509203087
0.513656844
0.518120256
0.5225929
0.527074348
0.531564166
0.536061915
0.540567153
0.545079429
0.549598291
0.554123279
0.558653931
0.563189778
0.567730348
0.572275162
0.576823739
0.581375592
0.585930231
0.590487159
0.595045878
0.599605884
0.604166668
0.60872772
0.613288522
0.617848556
0.622407299
0.626964223
0.631518797
0.636070489
0.640618759
0.645163068
0.649702872
0.654237624
0.658766774
0.663289768
0.667806053
0.672315069
0.676816255
0.681309049
0.685792885
0.690267195
0.69473141
0.699184957
0.703627263
0.708057753
0.712475849
0.716880973
0.721272546
0.725649985
0.730012708
0.734360133
0.738691675
0.743006748
0.747304768
0.751585148
0.755847301
0.760090642
0.764314582
0.768518536
0.772701916
0.776864136
0.78100461
0.785122753
0.789217979
0.793289706
0.79733735
0.80136033
0.805358064
0.809329974
0.813275482
0.817194012
0.821084989
0.824947842
0.828782
0.832586896
0.836361962
0.840106638
0.843820361
0.847502575
0.851152723
0.854770256
0.858354623
0.86190528
0.865421684
0.868903298
0.872349587
0.875760021
0.879134072
0.882471218
0.885770942
0.889032729
0.892256069
0.89544046
0.898585399
0.901690394
0.904754953
0.907778593
0.910760834
0.913701202
0.916599229
0.919454452
0.922266415
0.925034667
0.927758763
0.930438265
0.93307274
0.935661762
0.938204912
0.940701778
0.943151953
0.945555039
0.947910643
0.95021838
0.952477873
0.95468875
0.956850649
0.958963215
0.961026098
0.963038958
0.965001464
0.966913289
0.968774118
0.970583641
0.972341558
0.974047576
0.975701411
0.977302788
0.978851438
0.980347104
0.981789534
0.983178488
0.984513732
0.985795043
0.987022205
0.988195012
0.989313266
0.99037678
0.991385374
0.992338878
0.993237132
0.994079983
0.994867289
0.995598917
0.996274744
0.996894655
0.997458545
0.997966319
0.99841789
0.998813183
0.99915213
0.999434673
0.999660766
0.999830368
0.999943453
1
1
0.999943453
0.999830368
0.999660766
0.999434673
0.99915213
0.998813183
0.99841789
0.997966319
0.997458545
0.996894655
0.996274744
0.995598917
0.994867289
0.994079983
0.993237132
0.992338878
0.991385374
0.99037678
0.989313266
0.988195012
0.987022205
0.985795043
0.984513732
0.983178488
0.981789534
0.980347104
0.978851438
0.977302788
0.975701411
0.974047576
0.972341558
0.970583641
0.968774118
0.966913289
0.965001464
0.963038958
0.961026098
0.958963215
0.956850649
0.95468875
0.952477873
0.95021838
0.947910643
0.945555039
0.943151953
0.940701778
0.938204912
0.935661762
0.93307274
0.930438265
0.927758763
0.925034667
0.922266415
0.919454452
0.916599229
0.913701202
0.910760834
0.907778593
0.904754953
0.901690394
0.898585399
0.89544046
0.892256069
0.889032729
0.885770942
0.882471218
0.879134072
0.875760021
0.872349587
0.868903298
0.865421684
0.86190528
0.858354623
0.854770256
0.851152723
0.847502575
0.843820361
0.840106638
0.836361962
0.832586896
0.828782
0.824947842
0.821084989
0.817194012
0.813275482
0.809329974
0.805358064
0.80136033
0.79733735
0.793289706
0.789217979
0.785122753
0.78100461
0.776864136
0.772701916
0.768518536
0.764314582
0.760090642
0.755847301
0.751585148
0.747304768
0.743006748
0.738691675
0.734360133
0.730012708
0.725649985
0.721272546
0.716880973
0.712475849
0.708057753
0.703627263
0.699184957
0.69473141
0.690267195
0.685792885
0.681309049
0.676816255
0.672315069
0.667806053
0.663289768
0.658766774
0.654237624
0.649702872
0.645163068
0.640618759
0.636070489
0.631518797
0.626964223
0.622407299
0.617848556
0.613288522
0.60872772
0.604166668
0.599605884
0.595045878
0.590487159
0.585930231
0.581375592
0.576823739
0.572275162
0.567730348
0.563189778
0.558653931
0.554123279
0.549598291
0.545079429
0.540567153
0.536061915
0.531564166
0.527074348
0.5225929
0.518120256
0.513656844
0.509203087
0.504759403
0.500326204
0.495903897
0.491492885
0.487093563
0.482706321
0.478331546
0.473969616
0.469620906
0.465285783
0.460964611
0.456657746
0.452365539
0.448088336
0.443826476
0.439580293
0.435350116
0.431136265
0.426939057
0.422758804
0.418595808
0.414450369
0.410322779
0.406213325
0.402122288
0.398049943
0.393996558
0.389962396
0.385947716
0.381952767
0.377977795
0.374023039
0.370088733
0.366175105
0.362282375
0.35841076
0.354560469
0.350731707
0.346924671
0.343139554
0.339376543
0.335635819
0.331917556
0.328221923
0.324549086
0.320899201
0.31727242
0.313668891
0.310088755
0.306532148
0.302999198
0.299490032
0.296004767
0.292543518
0.289106394
0.285693496
0.282304923
0.278940768
0.275601117
0.272286052
0.268995651
0.265729986
0.262489122
0.259273122
0.256082043
0.252915936
0.249774849
0.246658825
0.2435679
0.240502107
0.237461475
0.234446028
0.231455783
0.228490757
0.225550958
0.222636394
0.219747064
0.216882967
0.214044095
0.211230438
0.208441978
0.205678699
0.202940575
0.20022758
0.197539682
0.194876847
0.192239036
0.189626207
0.187038312
0.184475304
0.181937128
0.179423728
0.176935044
0.174471013
0.172031568
0.169616639
0.167226154
0.164860036
0.162518206
0.160200583
0.157907081
0.155637612
0.153392086
0.15117041
0.148972487
0.146798219
0.144647505
0.142520241
0.140416321
0.138335636
0.136278077
0.13424353
0.132231879
0.130243008
0.128276797
0.126333125
0.124411868
0.122512901
0.120636098
0.118781328
0.116948461
0.115137366
0.113347908
0.111579952
0.109833361
0.108107996
0.106403717
0.104720384
0.103057854
0.101415982
0.099794625
0.0981936359
0.0966128676
0.0950521721
0.0935114002
0.0919904017
0.0904890257
0.0890071203
0.0875445328
0.0861011098
0.0846766974
0.0832711407
0.0818842844
0.0805159725
0.0791660488
0.0778343561
0.0765207373
0.0752250346
0.0739470899
0.0726867449
0.0714438408
0.0702182189
0.06900972
0.067818185
0.0666434546
0.0654853694
0.0643437699
0.0632184968
0.0621093907
0.0610162923
0.0599390423
0.0588774818
0.0578314519
0.0568007938
0.0557853492
0.0547849599
0.0537994681
0.0528287161
0.0518725469
0.0509308037
0.05000333
0.0490899701
0.0481905683
0.0473049699
0.0464330202
0.0455745656
0.0447294526
0.0438975286
0.0430786414
0.0422726397
0.0414793726
0.04069869
0.0399304425
0.0391744816
0.0384306591
0.0376988281
0.0369788421
0.0362705555
0.0355738236
0.0348885025
0.0342144491
0.0335515212
0.0328995775
0.0322584776
0.0316280819
0.031008252
0.03039885
0.0297997394
0.0292107844
0.0286318502
0.028062803
0.0275035101
0.0269538397
0.026413661
0.0258828443
0.0253612609
0.024848783
0.0243452841
0.0238506386
0.023364722
0.0228874109
0.0224185828
0.0219581165
0.0215058917
0.0210617895
0.0206256917
0.0201974814
0.0197770427
0.0193642611
0.0189590227
0.0185612152
0.0181707272
0.0177874483
0.0174112693
0.0170420823
0.0166797802
0.0163242573
0.0159754087
0.015633131
0.0152973217
0.0149678792
0.0146447035
0.0143276953
0.0140167566
0.0137117905
0.0134127012
0.0131193938
0.0128317748
0.0125497516
0.0122732328
0.0120021281
0.0117363481
0.0114758047
0.0112204108
0.0109700803
0.0107247282
0.0104842707
0.0102486249
0.010017709
0.0097914423
0.00956974499
0.00935253846
0.00913974506
0.00893128816
0.00872709218
0.00852708251
0.00833118559
0.00813932883
0.00795144063
0.00776745038
0.00758728847
0.00741088623
0.00723817597
0.00706909096
0.0069035654
0.00674153445
0.0065829342
0.00642770166
0.00627577478
0.00612709239
0.00598159425
0.005839221
0.00569991417
0.00556361616
0.00543027028
0.00529982065
0.00517221228
0.00504739102
0.00492530355
0.00480589738
0.00468912086
0.00457492313
0.00446325414
0.00435406465
0.0042473062
0.0041429311
0.00404089245
0.00394114409
0.00384364063
0.00374833743
0.00365519058
0.00356415688
0.00347519389
0.00338825985
0.00330331371
0.00322031512
0.00313922442
0.00306000262
0.0029826114
0.0029070131
0.00283317073
0.00276104793
0.00269060897
0.00262181876
0.00255464283
0.00248904732
0.00242499897
0.00236246512
0.00230141369
0.0022418132
0.00218363271
0.00212684187
0.00207141089
0.0020173105
0.00196451199
0.00191298718
0.00186270841
0.00181364856
0.00176578098
0.00171907956
0.00167351865
0.00162907313
0.00158571833
0.00154343005
0.00150218458
0.00146195864
0.00142272943
0.00138447458
0.00134717216
0.00131080066
0.00127533902
0.00124076657
0.00120706306
0.00117420866
0.00114218391
0.00111096976
0.00108054754
0.00105089896
0.0010220061
0.000993851395
0.000966417662
0.000939688055
0.000913646081
0.000888275586
0.000863560755

shape_id 2
num_samples 1000
0
0
998

shape_id 3
num_samples 2000
0.000857478127
0.000869674236
0.000882031344
0.000894551387
0.00090723632
0.00092008812
0.000933108786
0.000946300336
0.000959664811
0.000973204272
0.000986920803
0.00100081651
0.00101489352
0.00102915397
0.00104360005
0.00105823395
0.00107305788
0.00108807409
0.00110328483
0.0011186924
0.0011342991
0.00115010727
0.00116611926
0.00118233746
0.00119876427
0.00121540212
0.00123225348
0.00124932081
0.00126660663
0.00128411346
0.00130184387
0.00131980043
0.00133798575
0.00135640247
0.00137505324
0.00139394077
0.00141306775
0.00143243693
0.00145205108
0.001471913
0.0014920255
0.00151239144
0.00153301371
0.0015538952
0.00157503886
0.00159644764
0.00161812455
0.00164007261
0.00166229487
0.00168479441
0.00170757434
0.00173063782
0.00175398801
0.00177762811
0.00180156136
0.00182579103
0.00185032042
0.00187515284
0.00190029166
0.00192574028
0.00195150212
0.00197758063
0.0020039793
0.00203070166
0.00205775127
0.0020851317
0.00211284659
0.00214089959
0.00216929439
0.00219803472
0.00222712434
0.00225656703
0.00228636664
0.00231652702
0.00234705208
0.00237794575
0.00240921201
0.00244085487
0.00247287836
0.00250528658
0.00253808365
0.00257127371
0.00260486097
0.00263884965
0.00267324403
0.00270804842
0.00274326717
0.00277890465
0.00281496531
0.00285145359
0.00288837401
0.00292573111
0.00296352948
0.00300177374
0.00304046856
0.00307961864
0.00311922873
0.00315930362
0.00319984815
0.00324086718
0.00328236564
0.00332434847
0.00336682068
0.00340978732
0.00345325347
0.00349722426
0.00354170487
0.00358670052
0.00363221646
0.00367825801
0.00372483051
0.00377193938
0.00381959004
0.00386778799
0.00391653876
0.00396584793
0.00401572114
0.00406616405
0.00411718238
0.00416878191
0.00422096845
0.00427374787
0.00432712606
0.00438110901
0.00443570271
0.00449091322
0.00454674664
0.00460320915
0.00466030693
0.00471804624
0.0047764334
0.00483547476
0.00489517672
0.00495554574
0.00501658833
0.00507831105
0.00514072052
0.0052038234
0.00526762639
0.00533213629
0.0053973599
0.00546330409
0.00552997581
0.00559738203
0.00566552978
0.00573442616
0.00580407831
0.00587449342
0.00594567876
0.00601764162
0.00609038938
0.00616392945
0.00623826931
0.00631341649
0.00638937857
0.0064661632
0.00654377809
0.00662223099
0.00670152971
0.00678168212
0.00686269617
0.00694457983
0.00702734116
0.00711098826
0.00719552929
0.00728097248
0.00736732611
0.00745459852
0.00754279812
0.00763193336
0.00772201276
0.00781304492
0.00790503846
0.0079980021
0.0080919446
0.00818687478
0.00828280154
0.00837973381
0.00847768062
0.00857665103
0.00867665419
0.00877769927
0.00887979556
0.00898295237
0.00908717908
0.00919248515
0.00929888009
0.00940637348
0.00951497496
0.00962469423
0.00973554106
0.0098475253
0.00996065682
0.0100749456
0.0101904017
0.0103070351
0.0104248561
0.0105438749
0.0106641017
0.0107855469
0.010908221
0.0110321344
0.0111572976
0.0112837214
0.0114114163
0.0115403932
0.0116706629
0.0118022362
0.0119351241
0.0120693376
0.0122048879
0.012341786
0.0124800432
0.0126196709
0.0127606803
0.0129030829
0.0130468902
0.0131921138
0.0133387652
0.0134868563
0.0136363987
0.0137874043
0.0139398851
0.0140938529
0.0142493199
0.0144062982
0.0145647999
0.0147248373
0.0148864228
0.0150495687
0.0152142874
0.0153805916
0.0155484938
0.0157180067
0.0158891431
0.0160619157
0.0162363374
0.0164124212
0.0165901801
0.0167696272
0.0169507756
0.0171336386
0.0173182294
0.0175045616
0.0176926483
0.0178825033
0.0180741401
0.0182675722
0.0184628135
0.0186598777
0.0188587786
0.0190595303
0.0192621466
0.0194666417
0.0196730296
0.0198813247
0.0200915411
0.0203036932
0.0205177954
0.0207338622
0.0209519081
0.0211719478
0.0213939959
0.0216180672
0.0218441765
0.0220723387
0.0223025688
0.0225348817
0.0227692926
0.0230058166
0.0232444691
0.0234852651
0.0237282202
0.0239733497
0.0242206692
0.0244701942
0.0247219404
0.0249759234
0.025232159
0.025490663
0.0257514513
0.02601454
0.0262799449
0.0265476822
0.0268177681
0.0270902188
0.0273650505
0.0276422796
0.0279219225
0.0282039956
0.0284885156
0.028775499
0.0290649625
0.0293569228
0.0296513966
0.0299484009
0.0302479525
0.0305500684
0.0308547656
0.0311620613
0.0314719725
0.0317845164
0.0320997104
0.0324175718
0.0327381179
0.0330613661
0.033387334
0.0337160392
0.0340474992
0.0343817316
0.0347187543
0.035058585
0.0354012415
0.0357467417
0.0360951035
0.036446345
0.0368004842
0.0371575391
0.0375175279
0.0378804688
0.0382463801
0.0386152801
0.038987187
0.0393621194
0.0397400955
0.040121134
0.0405052534
0.0408924722
0.0412828091
0.0416762828
0.0420729119
0.0424727152
0.0428757116
0.0432819199
0.0436913589
0.0441040477
0.0445200051
0.0449392502
0.0453618021
0.0457876798
0.0462169024
0.0466494892
0.0470854593
0.0475248319
0.0479676264
0.048413862
0.0488635581
0.049316734
0.0497734091
0.0502336029
0.0506973348
0.0511646244
0.0516354911
0.0521099544
0.052588034
0.0530697495
0.0535551205
0.0540441665
0.0545369074
0.0550333627
0.0555335522
0.0560374957
0.0565452128
0.0570567234
0.0575720472
0.0580912041
0.0586142138
0.0591410962
0.0596718712
0.0602065585
0.0607451782
0.0612877499
0.0618342938
0.0623848295
0.0629393772
0.0634979566
0.0640605877
0.0646272903
0.0651980846
0.0657729902
0.0663520273
0.0669352156
0.0675225753
0.068114126
0.0687098879
0.0693098807
0.0699141244
0.070522639
0.0711354442
0.07175256
0.0723740063
0.0729998028
0.0736299695
0.0742645262
0.0749034927
0.0755468888
0.0761947343
0.0768470488
0.0775038523
0.0781651643
0.0788310047
0.0795013929
0.0801763488
0.0808558918
0.0815400417
0.0822288179
0.0829222399
0.0836203273
0.0843230995
0.0850305759
0.085742776
0.0864597189
0.0871814242
0.0879079109
0.0886391984
0.0893753058
0.0901162522
0.0908620567
0.0916127384
0.0923683162
0.093128809
0.0938942358
0.0946646153
0.0954399664
0.0962203076
0.0970056578
0.0977960354
0.098591459
0.099391947
0.100197518
0.10100819
0.101823981
0.10264491
0.103470995
0.104302254
0.105138704
0.105980364
0.106827251
0.107679384
0.108536779
0.109399455
0.110267429
0.111140718
0.112019339
0.11290331
0.113792648
0.114687371
0.115587494
0.116493034
0.117404009
0.118320436
0.119242329
0.120169707
0.121102586
0.122040981
0.122984908
0.123934385
0.124889426
0.125850047
0.126816265
0.127788094
0.12876555
0.129748648
0.130737404
0.131731832
0.132731948
0.133737766
0.134749301
0.135766568
0.13678958
0.137818352
0.138852899
0.139893234
0.140939371
0.141991323
0.143049105
0.14411273
0.145182211
0.146257561
0.147338792
0.148425919
0.149518953
0.150617907
0.151722794
0.152833624
0.153950412
0.155073167
0.156201903
0.15733663
0.158477359
0.159624103
0.160776872
0.161935676
0.163100527
0.164271434
0.165448408
0.16663146
0.167820598
0.169015833
0.170217175
0.171424631
0.172638213
0.173857928
0.175083785
0.176315793
0.17755396
0.178798294
0.180048804
0.181305496
0.182568379
0.183837459
0.185112744
0.186394241
0.187681956
0.188975895
0.190276066
0.191582473
0.192895123
0.194214021
0.195539172
0.196870582
0.198208255
0.199552196
0.200902409
0.202258899
0.203621669
0.204990724
0.206366065
0.207747697
0.209135623
0.210529845
0.211930365
0.213337187
0.214750311
0.216169739
0.217595473
0.219027514
0.220465862
0.221910519
0.223361485
0.22481876
0.226282343
0.227752234
0.229228433
0.230710939
0.23219975
0.233694864
0.235196281
0.236703997
0.23821801
0.239738318
0.241264919
0.242797807
0.244336981
0.245882436
0.247434168
0.248992172
0.250556445
0.252126981
0.253703774
0.25528682
0.256876111
0.258471643
0.260073409
0.261681401
0.263295613
0.264916037
0.266542666
0.268175492
0.269814505
0.271459698
0.273111061
0.274768586
0.276432262
0.27810208
0.27977803
0.2814601
0.28314828
0.284842559
0.286542925
0.288249366
0.28996187
0.291680425
0.293405018
0.295135634
0.296872262
0.298614887
0.300363495
0.30211807
0.3038786
0.305645067
0.307417457
0.309195753
0.31097994
0.312770001
0.314565918
0.316367675
0.318175254
0.319988637
0.321807806
0.323632741
0.325463424
0.327299836
0.329141956
0.330989765
0.332843242
0.334702366
0.336567116
0.338437472
0.340313409
0.342194908
0.344081944
0.345974495
0.347872538
0.349776049
0.351685004
0.353599378
0.355519146
0.357444285
0.359374767
0.361310568
0.363251661
0.365198019
0.367149615
0.369106422
0.371068413
0.373035559
0.375007832
0.376985203
0.378967643
0.380955122
0.38294761
0.384945078
0.386947494
0.388954828
0.390967048
0.392984122
0.395006018
0.397032704
0.399064146
0.401100312
0.403141168
0.40518668
0.407236814
0.409291534
0.411350807
0.413414595
0.415482864
0.417555577
0.419632698
0.421714189
0.423800014
0.425890135
0.427984513
0.43008311
0.432185888
0.434292807
0.436403828
0.438518911
0.440638015
0.442761101
0.444888126
0.44701905
0.44915383
0.451292426
0.453434794
0.455580891
0.457730675
0.459884101
0.462041127
0.464201707
0.466365798
0.468533353
0.470704328
0.472878678
0.475056355
0.477237314
0.479421509
0.481608891
0.483799413
0.485993028
0.488189688
0.490389343
0.492591946
0.494797447
0.497005796
0.499216944
0.50143084
0.503647434
0.505866675
0.508088512
0.510312893
0.512539766
0.514769079
0.51700078
0.519234816
0.521471133
0.523709677
0.525950396
0.528193235
0.530438139
0.532685053
0.534933923
0.537184692
0.539437306
0.541691708
0.543947841
0.546205649
0.548465075
0.550726062
0.552988551
0.555252486
0.557517807
0.559784457
0.562052375
0.564321505
0.566591785
0.568863156
0.571135559
0.573408933
0.575683217
0.57795835
0.580234273
0.582510922
0.584788237
0.587066155
0.589344615
0.591623554
0.59390291
0.596182618
0.598462617
0.600742842
0.60302323
0.605303717
0.607584239
0.609864731
0.612145128
0.614425366
0.616705379
0.618985102
0.621264469
0.623543415
0.625821873
0.628099778
0.630377061
0.632653657
0.634929499
0.63720452
0.639478651
0.641751827
0.644023978
0.646295037
0.648564935
0.650833605
0.653100977
0.655366984
0.657631555
0.659894623
0.662156117
0.664415968
0.666674107
0.668930464
0.671184968
0.673437551
0.675688141
0.677936668
0.680183062
0.682427252
0.684669167
0.686908736
0.689145888
0.691380552
0.693612657
0.69584213
0.698068901
0.700292897
0.702514048
0.70473228
0.706947522
0.709159702
0.711368747
0.713574586
0.715777146
0.717976353
0.720172137
0.722364424
0.724553141
0.726738215
0.728919575
0.731097146
0.733270856
0.735440632
0.7376064
0.739768088
0.741925623
0.74407893
0.746227938
0.748372572
0.75051276
0.752648428
0.754779502
0.75690591
0.759027579
0.761144433
0.763256401
0.76536341
0.767465384
0.769562252
0.771653941
0.773740375
0.775821483
0.777897192
0.779967427
0.782032116
0.784091186
0.786144563
0.788192174
0.790233948
0.792269809
0.794299687
0.796323507
0.798341198
0.800352686
0.802357899
0.804356765
0.80634921
0.808335164
0.810314553
0.812287305
0.814253349
0.816212613
0.818165024
0.820110511
0.822049003
0.823980428
0.825904715
0.827821793
0.829731591
0.831634037
0.833529062
0.835416594
0.837296564
0.8391689
0.841033534
0.842890394
0.844739412
0.846580518
0.848413642
0.850238715
0.852055669
0.853864434
0.855664942
0.857457124
0.859240913
0.861016241
0.862783039
0.86454124
0.866290778
0.868031584
0.869763592
0.871486736
0.873200948
0.874906164
0.876602318
0.878289342
0.879967174
0.881635746
0.883294995
0.884944856
0.886585265
0.888216158
0.889837471
0.89144914
0.893051104
0.894643298
0.896225661
0.89779813
0.899360644
0.900913141
0.902455559
0.903987838
0.905509918
0.907021737
0.908523236
0.910014356
0.911495037
0.912965221
0.914424848
0.915873861
0.917312202
0.918739814
0.920156638
0.921562619
0.922957701
0.924341826
0.92571494
0.927076988
0.928427914
0.929767665
0.931096185
0.932413422
0.933719323
0.935013834
0.936296902
0.937568477
0.938828507
0.940076939
0.941313724
0.942538812
0.943752152
0.944953694
0.946143391
0.947321192
0.948487051
0.94964092
0.95078275
0.951912496
0.953030112
0.95413555
0.955228767
0.956309716
0.957378354
0.958434637
0.95947852
0.960509961
0.961528918
0.962535348
0.96352921
0.964510463
0.965479066
0.966434978
0.967378161
0.968308575
0.969226182
0.970130944
0.971022822
0.97190178
0.972767782
0.973620791
0.974460772
0.975287689
0.976101509
0.976902197
0.977689721
0.978464046
0.979225141
0.979972973
0.980707513
0.981428728
0.982136589
0.982831066
0.983512129
0.984179752
0.984833904
0.985474559
0.986101691
0.986715271
0.987315276
0.98790168
0.988474457
0.989033584
0.989579038
0.990110795
0.990628832
0.991133129
0.991623664
0.992100416
0.992563365
0.993012492
0.993447777
0.993869203
0.994276751
0.994670404
0.995050146
0.99541596
0.995767831
0.996105744
0.996429686
0.996739641
0.997035597
0.997317543
0.997585464
0.997839351
0.998079192
0.998304978
0.998516699
0.998714345
0.998897909
0.999067382
0.999222758
0.99936403
0.999491191
0.999604238
0.999703164
0.999787965
0.999858638
0.999915181
0.999957589
0.999985863
1
1
0.999985863
0.999957589
0.999915181
0.999858638
0.999787965
0.999703164
0.999604238
0.999491191
0.99936403
0.999222758
0.999067382
0.998897909
0.998714345
0.998516699
0.998304978
0.998079192
0.997839351
0.997585464
0.997317543
0.997035597
0.996739641
0.996429686
0.996105744
0.995767831
0.99541596
0.995050146
0.994670404
0.994276751
0.993869203
0.993447777
0.993012492
0.992563365
0.992100416
0.991623664
0.991133129
0.990628832
0.990110795
0.989579038
0.989033584
0.988474457
0.98790168
0.987315276
0.986715271
0.986101691
0.985474559
0.984833904
0.984179752
0.983512129
0.982831066
0.982136589
0.981428728
0.980707513
0.979972973
0.979225141
0.978464046
0.977689721
0.976902197
0.976101509
0.975287689
0.974460772
0.973620791
0.972767782
0.97190178
0.971022822
0.970130944
0.969226182
0.968308575
0.967378161
0.966434978
0.965479066
0.964510463
0.96352921
0.962535348
0.961528918
0.960509961
0.95947852
0.958434637
0.957378354
0.956309716
0.955228767
0.95413555
0.953030112
0.951912496
0.95078275
0.94964092
0.948487051
0.947321192
0.946143391
0.944953694
0.943752152
0.942538812
0.941313724
0.940076939
0.938828507
0.937568477
0.936296902
0.935013834
0.933719323
0.932413422
0.931096185
0.929767665
0.928427914
0.927076988
0.92571494
0.924341826
0.922957701
0.921562619
0.920156638
0.918739814
0.917312202
0.915873861
0.914424848
0.912965221
0.911495037
0.910014356
0.908523236
0.907021737
0.905509918
0.903987838
0.902455559
0.900913141
0.899360644
0.89779813
0.896225661
0.894643298
0.893051104
0.89144914
0.889837471
0.888216158
0.886585265
0.884944856
0.883294995
0.881635746
0.879967174
0.878289342
0.876602318
0.874906164
0.873200948
0.871486736
0.869763592
0.868031584
0.866290778
0.86454124
0.862783039
0.861016241
0.859240913
0.857457124
0.855664942
0.853864434
0.852055669
0.850238715
0.848413642
0.846580518
0.844739412
0.842890394
0.841033534
0.8391689
0.837296564
0.835416594
0.833529062
0.831634037
0.829731591
0.827821793
0.825904715
0.823980428
0.822049003
0.820110511
0.818165024
0.816212613
0.814253349
0.812287305
0.810314553
0.808335164
0.80634921
0.804356765
0.802357899
0.800352686
0.798341198
0.796323507
0.794299687
0.792269809
0.790233948
0.788192174
0.786144563
0.784091186
0.782032116
0.779967427
0.777897192
0.775821483
0.773740375
0.771653941
0.769562252
0.767465384
0.76536341
0.763256401
0.761144433
0.759027579
0.75690591
0.754779502
0.752648428
0.75051276
0.748372572
0.746227938
0.74407893
0.741925623
0.739768088
0.7376064
0.735440632
0.733270856
0.731097146
0.728919575
0.726738215
0.724553141
0.722364424
0.720172137
0.717976353
0.715777146
0.713574586
0.711368747
0.709159702
0.706947522
0.70473228
0.702514048
0.700292897
0.698068901
0.69584213
0.693612657
0.691380552
0.689145888
0.686908736
0.684669167
0.682427252
0.680183062
0.677936668
0.675688141
0.673437551
0.671184968
0.668930464
0.666674107
0.664415968
0.662156117
0.659894623
0.657631555
0.655366984
0.653100977
0.650833605
0.648564935
0.646295037
0.644023978
0.641751827
0.639478651
0.63720452
0.634929499
0.632653657
0.630377061
0.628099778
0.625821873
0.623543415
0.621264469
0.618985102
0.616705379
0.614425366
0.612145128
0.609864731
0.607584239
0.605303717
0.60302323
0.600742842
0.598462617
0.596182618
0.59390291
0.591623554
0.589344615
0.587066155
0.584788237
0.582510922
0.580234273
0.57795835
0.575683217
0.573408933
0.571135559
0.568863156
0.566591785
0.564321505
0.562052375
0.559784457
0.557517807
0.555252486
0.552988551
0.550726062
0.548465075
0.546205649
0.543947841
0.541691708
0.539437306
0.537184692
0.534933923
0.532685053
0.530438139
0.528193235
0.525950396
0.523709677
0.521471133
0.519234816
0.51700078
0.514769079
0.512539766
0.510312893
0.508088512
0.505866675
0.503647434
0.50143084
0.499216944
0.497005796
0.494797447
