# Pulseq sequence file
# Created by MATLAB mr toolbox

[VERSION]
major 1
minor 4
revision 1

[DEFINITIONS]
AdcRasterTime 1e-07 
BlockDurationRaster 1e-05 
GradientRasterTime 1e-05 
RadiofrequencyRasterTime 1e-06 

# Format of blocks:
# NUM DUR RF  GX  GY  GZ  ADC  EXT
[BLOCKS]
 1 100   1   0   0   0  0  0
 2 100000   0   0   0   0  0  0
 3 200   2   0   0   0  0  0
 4 100000   0   0   0   0  0  0
 5 100   3   0   0   0  0  0
 6 100000   0   0   0   0  0  0
 7 100   3   0   0   0  0  0
 8 100000   0   0   0   0  0  0
 9 200   4   0   0   0  0  0
10 100000   0   0   0   0  0  0
11 100   5   0   0   0  0  0
12 100000   0   0   0   0  0  0
13 100   6   0   0   0  0  0
14 100000   0   0   0   0  0  0
15 100   7   0   0   0  0  0

# Format of RF events:
# id amplitude mag_id phase_id time_shape_id delay freq phase
# ..        Hz   ....     ....          ....    us   Hz   rad
[RF]
1      705.139 1 2 0 0 0 0
2      705.139 1 2 0 1000 0 0
3      1107.63 1 2 0 0 0 0
4      553.817 3 4 0 0 0 1.5708
5      1107.63 1 2 0 0 1000 1.5708
6      286.482 5 6 0 0 0 0
7      1081.31 7 2 0 0 0 0

# Sequence Shapes
[SHAPES]

shape_id 1
num_samples 1000
0.001001001
0.00300886869
0.00502433213
0.00704711925
0.00907695593
0.011113566
0.0131566713
0.0152059917
0.017261245
0.0193221473
0.0213884125
0.023459753
0.0255358792
0.0276164996
0.0297013211
0.0317900488
0.0338823861
0.0359780348
0.0380766951
0.0401780654
0.0422818427
0.0443877225
0.0464953987
0.0486045638
0.050714909
0.0528261238
0.0549378966
0.0570499144
0.0591618631
0.0612734269
0.0633842894
0.0654941325
0.0676026372
0.0697094836
0.0718143503
0.0739169152
0.0760168551
0.078113846
0.0802075628
0.0822976796
0.0843838697
0.0864658057
0.0885431592
0.0906156012
0.0926828023
0.0947444321
0.0968001597
0.0988496537
0.100892582
0.102928613
0.104957413
0.106978649
0.108991988
0.110997095
0.112993637
0.114981279
0.116959687
0.118928525
0.12088746
0.122836156
0.124774278
0.126701492
0.128617463
0.130521856
0.132414336
0.134294569
0.136162222
0.13801696
0.139858449
0.141686357
0.143500351
0.145300098
0.147085267
0.148855526
0.150610545
0.152349994
0.154073542
0.155780861
0.157471624
0.159145503
0.160802171
0.162441303
0.164062574
0.165665662
0.167250242
0.168815993
0.170362595
0.171889728
0.173397074
0.174884316
0.176351138
0.177797226
0.179222265
0.180625945
0.182007955
0.183367986
0.184705731
0.186020883
0.187313138
0.188582193
0.189827748
0.191049503
0.19224716
0.193420424
0.194569001
0.195692597
0.196790924
0.197863693
0.198910617
0.199931412
0.200925797
0.20189349
0.202834214
0.203747694
0.204633655
0.205491826
0.206321939
0.207123726
0.207896924
0.20864127
0.209356505
0.210042373
0.210698618
0.211324989
0.211921237
0.212487114
0.213022378
0.213526787
0.214000102
0.214442088
0.214852512
0.215231144
0.215577756
0.215892124
0.216174028
0.216423248
0.21663957
0.216822781
0.216972672
0.217089037
0.217171673
0.217220381
0.217234963
0.217215227
0.217160983
0.217072044
0.216948227
0.216789351
0.21659524
0.216365722
0.216100625
0.215799784
0.215463037
0.215090223
0.214681188
0.214235779
0.213753848
0.21323525
0.212679844
0.212087492
0.211458061
0.210791421
0.210087446
0.209346012
0.208567002
0.2077503
0.206895796
0.206003383
0.205072957
0.20410442
0.203097675
0.202052632
0.200969203
0.199847305
0.198686858
0.197487787
0.196250022
0.194973494
0.19365814
0.192303903
0.190910725
0.189478558
0.188007355
0.186497072
0.184947672
0.18335912
0.181731387
0.180064448
0.17835828
0.176612867
0.174828196
0.173004258
0.171141048
0.169238568
0.16729682
0.165315814
0.163295562
0.161236081
0.159137394
0.156999525
0.154822505
0.152606368
0.150351154
0.148056905
0.14572367
0.143351499
0.14094045
0.138490582
0.136001962
0.133474658
0.130908744
0.128304299
0.125661404
0.122980148
0.12026062
0.117502918
0.11470714
0.111873391
0.10900178
0.10609242
0.103145429
0.100160928
0.0971390435
0.0940799061
0.0909836506
0.0878504161
0.0846803461
0.0814735886
0.0782302954
0.0749506232
0.0716347325
0.0682827884
0.06489496
0.0614714209
0.0580123489
0.0545179258
0.0509883379
0.0474237756
0.0438244335
0.0401905103
0.036522209
0.0328197366
0.0290833045
0.0253131278
0.0215094262
0.017672423
0.013802346
0.00989942667
0.00596390077
0.00199600798
0.00200400802
0.00603589957
0.0100994151
0.014194299
0.0183202919
0.0224771304
0.0266645474
0.0308822718
0.0351300286
0.0394075394
0.0437145216
0.0480506891
0.052415752
0.0568094167
0.0612313859
0.0656813588
0.0701590308
0.0746640938
0.0791962362
0.0837551428
0.0883404949
0.0929519703
0.0975892434
0.102251985
0.106939863
0.111652542
0.116389682
0.121150942
0.125935975
0.130744433
0.135575963
0.140430211
0.145306818
0.150205423
0.155125662
0.160067166
0.165029566
0.170012488
0.175015557
0.180038392
0.185080612
0.190141832
0.195221664
0.200319719
0.205435603
0.210568921
0.215719275
0.220886263
0.226069483
0.231268529
0.236482993
0.241712464
0.246956529
0.252214773
0.257486779
0.262772126
0.268070393
0.273381155
0.278703987
0.28403846
0.289384144
0.294740606
0.300107413
0.305484129
0.310870314
0.316265531
0.321669336
0.327081288
0.332500941
0.337927849
0.343361564
0.348801637
0.354247615
0.359699048
0.365155482
0.37061646
0.376081527
0.381550226
0.387022096
0.39249668
0.397973514
0.403452138
0.408932089
0.414412901
0.419894111
0.425375253
0.430855859
0.436335464
0.441813598
0.447289793
0.452763581
0.45823449
0.463702052
0.469165794
0.474625247
0.480079938
0.485529396
0.490973149
0.496410725
0.501841651
0.507265454
0.512681663
0.518089805
0.523489407
0.528879998
0.534261104
0.539632255
0.544992978
0.550342802
0.555681256
0.561007869
0.566322172
0.571623694
0.576911968
0.582186523
0.587446893
0.59269261
0.597923209
0.603138223
0.608337189
0.613519643
0.618685121
0.623833162
0.628963307
0.634075094
0.639168067
0.644241768
0.64929574
0.654329531
0.659342686
0.664334755
0.669305286
0.674253831
0.679179944
0.684083178
0.68896309
0.693819238
0.698651182
0.703458483
0.708240704
0.71299741
0.71772817
0.722432552
0.727110128
0.73176047
0.736383155
0.74097776
0.745543866
0.750081054
0.75458891
0.759067019
0.763514973
0.767932362
0.772318781
0.776673827
0.7809971
0.785288201
0.789546737
0.793772314
0.797964543
0.802123037
0.806247413
0.81033729
0.814392289
0.818412036
0.822396158
0.826344288
0.830256059
0.834131108
0.837969077
0.841769609
0.845532351
0.849256954
0.852943072
0.856590361
0.860198484
0.863767103
0.867295886
0.870784505
0.874232635
0.877639954
0.881006143
0.88433089
0.887613883
0.890854815
0.894053384
0.897209291
0.90032224
0.90339194
0.906418104
0.909400448
0.912338693
0.915232564
0.918081788
0.920886099
0.923645234
0.926358934
0.929026944
0.931649012
0.934224894
0.936754347
0.939237132
0.941673017
0.944061772
0.946403173
0.948696999
0.950943034
0.953141066
0.955290889
0.9573923
0.9594451
0.961449097
0.963404101
0.965309928
0.967166397
0.968973335
0.97073057
0.972437936
0.974095272
0.975702422
0.977259233
0.978765559
0.980221257
0.98162619
0.982980225
0.984283233
0.985535092
0.986735684
0.987884894
0.988982613
0.990028739
0.991023172
0.991965817
0.992856587
0.993695395
0.994482164
0.995216818
0.995899288
0.996529509
0.997107422
0.997632971
0.998106108
0.998526787
0.998894968
0.999210617
0.999473703
0.999684202
0.999842093
0.999947363
1
1
0.999947363
0.999842093
0.999684202
0.999473703
0.999210617
0.998894968
0.998526787
0.998106108
0.997632971
0.997107422
0.996529509
0.995899288
0.995216818
0.994482164
0.993695395
0.992856587
0.991965817
0.991023172
0.990028739
0.988982613
0.987884894
0.986735684
0.985535092
0.984283233
0.982980225
0.98162619
0.980221257
0.978765559
0.977259233
0.975702422
0.974095272
0.972437936
0.97073057
0.968973335
0.967166397
0.965309928
0.963404101
0.961449097
0.9594451
0.9573923
0.955290889
0.953141066
0.950943034
0.948696999
0.946403173
0.944061772
0.941673017
0.939237132
0.936754347
0.934224894
0.931649012
0.929026944
0.926358934
0.923645234
0.920886099
0.918081788
0.915232564
0.912338693
0.909400448
0.906418104
0.90339194
0.90032224
0.897209291
0.894053384
0.890854815
0.887613883
0.88433089
0.881006143
0.877639954
0.874232635
0.870784505
0.867295886
0.863767103
0.860198484
0.856590361
0.852943072
0.849256954
0.845532351
0.841769609
0.837969077
0.834131108
0.830256059
0.826344288
0.822396158
0.818412036
0.814392289
0.81033729
0.806247413
0.802123037
0.797964543
0.793772314
0.789546737
0.785288201
0.7809971
0.776673827
0.772318781
0.767932362
0.763514973
0.759067019
0.75458891
0.750081054
0.745543866
0.74097776
0.736383155
0.73176047
0.727110128
0.722432552
0.71772817
0.71299741
0.708240704
0.703458483
0.698651182
0.693819238
0.68896309
0.684083178
0.679179944
0.674253831
0.669305286
0.664334755
0.659342686
0.654329531
0.64929574
0.644241768
0.639168067
0.634075094
0.628963307
0.623833162
0.618685121
0.613519643
0.608337189
0.603138223
0.597923209
0.59269261
0.587446893
0.582186523
0.576911968
0.571623694
0.566322172
0.561007869
0.555681256
0.550342802
0.544992978
0.539632255
0.534261104
0.528879998
0.523489407
0.518089805
0.512681663
0.507265454
0.501841651
0.496410725
0.490973149
0.485529396
0.480079938
0.474625247
0.469165794
0.463702052
0.45823449
0.452763581
0.447289793
0.441813598
0.436335464
0.430855859
0.425375253
0.419894111
0.414412901
0.408932089
0.403452138
0.397973514
0.39249668
0.387022096
0.381550226
0.376081527
0.37061646
0.365155482
0.359699048
0.354247615
0.348801637
0.343361564
0.337927849
0.332500941
0.327081288
0.321669336
0.316265531
0.310870314
0.305484129
0.300107413
0.294740606
0.289384144
0.28403846
0.278703987
0.273381155
0.268070393
0.262772126
0.257486779
0.252214773
0.246956529
0.241712464
0.236482993
0.231268529
0.226069483
0.220886263
0.215719275
0.210568921
0.205435603
0.200319719
0.195221664
0.190141832
0.185080612
0.180038392
0.175015557
0.170012488
0.165029566
0.160067166
0.155125662
0.150205423
0.145306818
0.140430211
0.135575963
0.130744433
0.125935975
0.121150942
0.116389682
0.111652542
0.106939863
0.102251985
0.0975892434
0.0929519703
0.0883404949
0.0837551428
0.0791962362
0.0746640938
0.0701590308
0.0656813588
0.0612313859
0.0568094167
0.052415752
0.0480506891
0.0437145216
0.0394075394
0.0351300286
0.0308822718
0.0266645474
0.0224771304
0.0183202919
0.014194299
0.0100994151
0.00603589957
0.00200400802
0.00199600798
0.00596390077
0.00989942667
0.013802346
0.017672423
0.0215094262
0.0253131278
0.0290833045
0.0328197366
0.036522209
0.0401905103
0.0438244335
0.0474237756
0.0509883379
0.0545179258
0.0580123489
0.0614714209
0.06489496
0.0682827884
0.0716347325
0.0749506232
0.0782302954
0.0814735886
0.0846803461
0.0878504161
0.0909836506
0.0940799061
0.0971390435
0.100160928
0.103145429
0.10609242
0.10900178
0.111873391
0.11470714
0.117502918
0.12026062
0.122980148
0.125661404
0.128304299
0.130908744
0.133474658
0.136001962
0.138490582
0.14094045
0.143351499
0.14572367
0.148056905
0.150351154
0.152606368
0.154822505
0.156999525
0.159137394
0.161236081
0.163295562
0.165315814
0.16729682
0.169238568
0.171141048
0.173004258
0.174828196
0.176612867
0.17835828
0.180064448
0.181731387
0.18335912
0.184947672
0.186497072
0.188007355
0.189478558
0.190910725
0.192303903
0.19365814
0.194973494
0.196250022
0.197487787
0.198686858
0.199847305
0.200969203
0.202052632
0.203097675
0.20410442
0.205072957
0.206003383
0.206895796
0.2077503
0.208567002
0.209346012
0.210087446
0.210791421
0.211458061
0.212087492
0.212679844
0.21323525
0.213753848
0.214235779
0.214681188
0.215090223
0.215463037
0.215799784
0.216100625
0.216365722
0.21659524
0.216789351
0.216948227
0.217072044
0.217160983
0.217215227
0.217234963
0.217220381
0.217171673
0.217089037
0.216972672
0.216822781
0.21663957
0.216423248
0.216174028
0.215892124
0.215577756
0.215231144
0.214852512
0.214442088
0.214000102
0.213526787
0.213022378
0.212487114
0.211921237
0.211324989
0.210698618
0.210042373
0.209356505
0.20864127
0.207896924
0.207123726
0.206321939
0.205491826
0.204633655
0.203747694
0.202834214
0.20189349
0.200925797
0.199931412
0.198910617
0.197863693
0.196790924
0.195692597
0.194569001
0.193420424
0.19224716
0.191049503
0.189827748
0.188582193
0.187313138
0.186020883
0.184705731
0.183367986
0.182007955
0.180625945
0.179222265
0.177797226
0.176351138
0.174884316
0.173397074
0.171889728
0.170362595
0.168815993
0.167250242
0.165665662
0.164062574
0.162441303
0.160802171
0.159145503
0.157471624
0.155780861
0.154073542
0.152349994
0.150610545
0.148855526
0.147085267
0.145300098
0.143500351
0.141686357
0.139858449
0.13801696
0.136162222
0.134294569
0.132414336
0.130521856
0.128617463
0.126701492
0.124774278
0.122836156
0.12088746
0.118928525
0.116959687
0.114981279
0.112993637
0.110997095
0.108991988
0.106978649
0.104957413
0.102928613
0.100892582
0.0988496537
0.0968001597
0.0947444321
0.0926828023
0.0906156012
0.0885431592
0.0864658057
0.0843838697
0.0822976796
0.0802075628
0.078113846
0.0760168551
0.0739169152
0.0718143503
0.0697094836
0.0676026372
0.0654941325
0.0633842894
0.0612734269
0.0591618631
0.0570499144
0.0549378966
0.0528261238
0.050714909
0.0486045638
0.0464953987
0.0443877225
0.0422818427
0.0401780654
0.0380766951
0.0359780348
0.0338823861
0.0317900488
0.0297013211
0.0276164996
0.0255358792
0.023459753
0.0213884125
0.0193221473
0.017261245
0.0152059917
0.0131566713
0.011113566
0.00907695593
0.00704711925
0.00502433213
0.00300886869
0.001001001

shape_id 2
num_samples 1000
0.5
0
0
247
-0.5
0
0
497
0.5
0
0
247

shape_id 3
num_samples 2000
0.000500250125
0.00150223361
0.00250616672
0.00351201571
0.00451974671
0.0055293257
0.00654071855
0.007553891
0.00856880864
0.00958543697
0.0106037413
0.011623687
0.0126452389
0.0136683623
0.0146930218
0.0157191823
0.0167468083
0.0177758644
0.0188063149
0.0198381241
0.0208712561
0.021905675
0.0229413447
0.0239782289
0.0250162914
0.0260554958
0.0270958054
0.0281371837
0.0291795939
0.0302229992
0.0312673625
0.0323126469
0.033358815
0.0344058297
0.0354536536
0.0365022492
0.0375515788
0.0386016049
0.0396522896
0.040703595
0.0417554833
0.0428079162
0.0438608557
0.0449142635
0.0459681012
0.0470223304
0.0480769126
0.0491318091
0.0501869813
0.0512423904
0.0522979975
0.0533537636
0.0544096497
0.0554656166
0.0565216252
0.0575776363
0.0586336103
0.0596895079
0.0607452896
0.0618009157
0.0628563467
0.0639115428
0.0649664641
0.0660210708
0.067075323
0.0681291806
0.0691826036
0.0702355518
0.071287985
0.0723398629
0.0733911452
0.0744417916
0.0754917614
0.0765410143
0.0775895096
0.0786372068
0.0796840651
0.0807300439
0.0817751022
0.0828191993
0.0838622944
0.0849043464
0.0859453143
0.0869851572
0.088023834
0.0890613035
0.0900975246
0.091132456
0.0921660566
0.0931982851
0.0942291
0.0952584602
0.0962863241
0.0973126503
0.0983373975
0.099360524
0.100381988
0.101401749
0.102419765
0.103435993
0.104450394
0.105462924
0.106473542
0.107482207
0.108488876
0.109493509
0.110496063
0.111496496
0.112494768
0.113490835
0.114484656
0.11547619
0.116465394
0.117452227
0.118436647
0.119418611
0.120398079
0.121375008
0.122349356
0.123321082
0.124290144
0.125256499
0.126220107
0.127180924
0.12813891
0.129094022
0.130046219
0.130995459
0.1319417
0.1328849
0.133825017
0.13476201
0.135695837
0.136626456
0.137553825
0.138477904
0.139398649
0.14031602
0.141229975
0.142140472
0.143047469
0.143950926
0.1448508
0.145747051
0.146639636
0.147528515
0.148413645
0.149294986
0.150172496
0.151046135
0.15191586
0.15278163
0.153643405
0.154501144
0.155354804
0.156204346
0.157049728
0.15789091
0.15872785
0.159560509
0.160388844
0.161212815
0.162032382
0.162847504
0.163658141
0.164464252
0.165265797
0.166062735
0.166855026
0.16764263
0.168425507
0.169203616
0.169976918
0.170745373
0.171508941
0.172267582
0.173021256
0.173769924
0.174513547
0.175252084
0.175985496
0.176713744
0.177436789
0.178154592
0.178867113
0.179574314
0.180276155
0.180972599
0.181663605
0.182349136
0.183029153
0.183703617
0.184372491
0.185035736
0.185693313
0.186345185
0.186991314
0.187631662
0.188266192
0.188894865
0.189517644
0.190134492
0.190745371
0.191350244
0.191949074
0.192541825
0.193128458
0.193708938
0.194283228
0.194851291
0.195413091
0.195968592
0.196517757
0.197060551
0.197596937
0.19812688
0.198650344
0.199167293
0.199677693
0.200181507
0.200678702
0.20116924
0.201653089
0.202130213
0.202600577
0.203064147
0.203520889
0.203970768
0.20441375
0.204849802
0.20527889
0.20570098
0.206116038
0.206524032
0.206924928
0.207318693
0.207705294
0.208084698
0.208456874
0.208821787
0.209179407
0.209529701
0.209872637
0.210208184
0.210536308
0.21085698
0.211170168
0.211475841
0.211773967
0.212064516
0.212347458
0.212622761
0.212890395
0.213150331
0.213402538
0.213646986
0.213883646
0.214112489
0.214333484
0.214546603
0.214751818
0.214949099
0.215138417
0.215319745
0.215493053
0.215658315
0.215815502
0.215964586
0.216105541
0.216238338
0.216362951
0.216479353
0.216587516
0.216687415
0.216779024
0.216862315
0.216937263
0.217003843
0.217062029
0.217111794
0.217153115
0.217185967
0.217210323
0.217226161
0.217233455
0.217232182
0.217222317
0.217203837
0.217176718
0.217140937
0.21709647
0.217043296
0.21698139
0.216910731
0.216831296
0.216743064
0.216646012
0.216540118
0.216425362
0.216301722
0.216169177
0.216027706
0.215877289
0.215717905
0.215549535
0.215372158
0.215185754
0.214990305
0.214785791
0.214572193
0.214349492
0.214117669
0.213876707
0.213626587
0.213367292
0.213098803
0.212821104
0.212534176
0.212238004
0.21193257
0.211617858
0.211293852
0.210960536
0.210617893
0.210265909
0.209904568
0.209533855
0.209153755
0.208764253
0.208365336
0.207956989
0.207539198
0.20711195
0.206675231
0.206229028
0.205773329
0.20530812
0.204833389
0.204349124
0.203855313
0.203351945
0.202839007
0.20231649
0.201784381
0.20124267
0.200691348
0.200130403
0.199559825
0.198979606
0.198389735
0.197790204
0.197181003
0.196562125
0.195933559
0.1952953
0.194647337
0.193989665
0.193322275
0.19264516
0.191958314
0.191261729
0.1905554
0.189839321
0.189113486
0.188377888
0.187632523
0.186877386
0.186112472
0.185337776
0.184553295
0.183759023
0.182954958
0.182141097
0.181317434
0.180483969
0.179640698
0.178787619
0.177924729
0.177052027
0.176169511
0.17527718
0.174375032
0.173463068
0.172541286
0.171609686
0.170668268
0.169717032
0.168755979
0.16778511
0.166804425
0.165813927
0.164813616
0.163803495
0.162783565
0.16175383
0.160714291
0.159664952
0.158605816
0.157536886
0.156458167
0.155369662
0.154271375
0.153163312
0.152045476
0.150917874
0.14978051
0.148633391
0.147476522
0.146309909
0.145133559
0.143947478
0.142751675
0.141546155
0.140330927
0.139105998
0.137871377
0.136627072
0.135373092
0.134109445
0.132836141
0.131553189
0.130260599
0.128958382
0.127646547
0.126325105
0.124994066
0.123653443
0.122303247
0.120943488
0.11957418
0.118195334
0.116806962
0.115409079
0.114001695
0.112584826
0.111158485
0.109722685
0.10827744
0.106822766
0.105358676
0.103885185
0.10240231
0.100910065
0.0994084659
0.0978975291
0.0963772708
0.0948477076
0.0933088562
0.0917607339
0.0902033581
0.0886367463
0.0870609166
0.0854758871
0.0838816764
0.0822783031
0.0806657864
0.0790441454
0.0774133997
0.0757735691
0.0741246738
0.0724667341
0.0707997706
0.0691238041
0.0674388559
0.0657449474
0.0640421002
0.0623303364
0.060609678
0.0588801477
0.0571417681
0.0553945623
0.0536385535
0.0518737653
0.0501002214
0.048317946
0.0465269634
0.0447272981
0.042918975
0.0411020192
0.0392764561
0.0374423112
0.0355996106
0.0337483802
0.0318886466
0.0300204364
0.0281437765
0.026258694
0.0243652165
0.0224633716
0.0205531872
0.0186346915
0.016707913
0.0147728804
0.0128296227
0.010878169
0.00891854875
0.00695079177
0.00497492797
0.00299098756
0.000999000999
0.001001001
0.00300898748
0.00502492725
0.00704878884
0.00908054056
0.0111201505
0.0131675864
0.0152228159
0.0172858062
0.0193565246
0.0214349378
0.0235210124
0.0256147148
0.0277160111
0.0298248671
0.0319412486
0.0340651209
0.0361964493
0.0383351985
0.0404813334
0.0426348183
0.0447956176
0.0469636952
0.0491390148
0.0513215401
0.0535112342
0.0557080604
0.0579119813
0.0601229597
0.062340958
0.0645659382
0.0667978623
0.0690366921
0.071282389
0.0735349142
0.0757942289
0.0780602939
0.0803330697
0.0826125167
0.0848985951
0.0871912649
0.0894904857
0.0917962171
0.0941084184
0.0964270487
0.0987520668
0.101083431
0.103421101
0.105765034
0.108115188
0.110471521
0.112833991
0.115202554
0.117577169
0.119957793
0.122344381
0.124736891
0.12713528
0.129539502
0.131949515
0.134365274
0.136786734
0.139213852
0.141646582
0.144084879
0.146528698
0.148977994
0.151432722
0.153892834
0.156358287
0.158829033
0.161305026
0.163786219
0.166272567
0.168764022
0.171260536
0.173762064
0.176268557
0.178779968
0.18129625
0.183817353
0.186343231
0.188873834
0.191409115
0.193949025
0.196493515
0.199042536
0.201596039
0.204153975
0.206716294
0.209282946
0.211853883
0.214429053
0.217008407
0.219591895
0.222179466
0.22477107
0.227366655
0.229966172
0.232569568
0.235176794
0.237787797
0.240402526
0.243020929
0.245642955
0.248268552
0.250897668
0.25353025
0.256166246
0.258805604
0.261448271
0.264094195
0.266743322
0.269395599
0.272050974
0.274709393
0.277370802
0.280035149
0.282702379
0.285372439
0.288045274
0.290720831
0.293399056
0.296079894
0.298763291
0.301449193
0.304137544
0.30682829
0.309521376
0.312216748
0.31491435
0.317614127
0.320316023
0.323019984
0.325725953
0.328433876
0.331143696
0.333855358
0.336568806
0.339283983
0.342000834
0.344719303
0.347439333
0.350160867
0.35288385
0.355608225
0.358333935
0.361060924
0.363789134
0.366518509
0.369248992
0.371980526
0.374713053
0.377446517
0.38018086
0.382916024
0.385651953
0.388388589
0.391125875
0.393863752
0.396602163
0.39934105
0.402080356
0.404820022
0.407559991
0.410300204
0.413040604
0.415781133
0.418521732
0.421262342
0.424002907
0.426743367
0.429483664
0.43222374
0.434963536
0.437702993
0.440442054
0.44318066
0.445918751
0.44865627
0.451393158
0.454129355
0.456864804
0.459599445
0.462333219
0.465066069
0.467797934
0.470528756
0.473258476
0.475987036
0.478714375
0.481440436
0.484165159
0.486888485
0.489610356
0.492330711
0.495049493
0.497766642
0.500482099
0.503195805
0.5059077
0.508617727
0.511325826
0.514031937
0.516736002
0.519437961
0.522137757
0.524835328
0.527530618
0.530223566
0.532914113
0.535602201
0.53828777
0.540970762
0.543651118
0.546328778
0.549003684
0.551675777
0.554344998
0.557011289
0.55967459
0.562334842
0.564991988
0.567645968
0.570296723
0.572944196
0.575588327
0.578229057
0.580866329
0.583500084
0.586130263
0.588756809
0.591379662
0.593998764
0.596614058
0.599225485
0.601832986
0.604436505
0.607035982
0.60963136
0.612222581
0.614809588
0.617392321
0.619970724
0.62254474
0.62511431
0.627679376
0.630239882
0.632795771
0.635346984
0.637893465
0.640435156
0.642972001
0.645503943
0.648030924
0.650552888
0.653069778
0.655581537
0.658088109
0.660589438
0.663085467
0.66557614
0.6680614
0.670541192
0.673015459
0.675484147
0.677947198
0.680404557
0.682856169
0.685301978
0.687741929
0.690175967
0.692604036
0.695026081
0.697442048
0.699851881
0.702255526
0.704652929
0.707044034
0.709428788
0.711807137
0.714179025
0.7165444
0.718903208
0.721255394
0.723600905
0.725939688
0.728271689
0.730596855
0.732915134
0.735226472
0.737530816
0.739828114
0.742118313
0.744401361
0.746677206
0.748945795
0.751207077
0.753461
0.755707512
0.757946563
0.760178099
0.762402072
0.764618428
0.766827118
0.769028091
0.771221296
0.773406683
0.775584201
0.777753801
0.779915433
0.782069047
0.784214594
0.786352023
0.788481286
0.790602335
0.792715119
0.79481959
0.796915701
0.799003401
0.801082644
0.803153381
0.805215565
0.807269148
0.809314082
0.81135032
0.813377816
0.815396521
0.817406391
0.819407377
0.821399434
0.823382516
0.825356577
0.827321571
0.829277452
0.831224176
0.833161697
0.83508997
0.83700895
0.838918593
0.840818855
0.842709692
0.844591059
0.846462914
0.848325211
0.850177909
0.852020964
0.853854334
0.855677975
0.857491845
0.859295903
0.861090105
0.862874411
0.864648779
0.866413167
0.868167535
0.869911841
0.871646045
0.873370106
0.875083985
0.876787641
0.878481034
0.880164125
0.881836876
0.883499246
0.885151196
0.886792689
0.888423687
0.890044149
0.89165404
0.893253322
0.894841956
0.896419906
0.897987135
0.899543607
0.901089284
0.902624131
0.904148112
0.905661191
0.907163333
0.908654502
0.910134663
0.911603783
0.913061826
0.914508758
0.915944546
0.917369155
0.918782553
0.920184706
0.921575581
0.922955146
0.924323368
0.925680215
0.927025655
0.928359657
0.92968219
0.930993221
0.932292722
0.93358066
0.934857006
0.93612173
0.937374802
0.938616192
0.939845871
0.941063811
0.942269983
0.943464359
0.944646909
0.945817607
0.946976425
0.948123336
0.949258312
0.950381327
0.951492355
0.952591369
0.953678343
0.954753253
0.955816071
0.956866775
0.957905338
0.958931736
0.959945945
0.960947941
0.961937701
0.962915201
0.963880419
0.96483333
0.965773913
0.966702146
0.967618007
0.968521474
0.969412526
0.970291142
0.9711573
0.972010982
0.972852165
0.973680832
0.974496961
0.975300535
0.976091533
0.976869937
0.977635729
0.97838889
0.979129404
0.979857251
0.980572416
0.981274881
0.98196463
0.982641646
0.983305913
0.983957416
0.984596139
0.985222068
0.985835186
0.986435481
0.987022937
0.98759754
0.988159278
0.988708137
0.989244104
0.989767166
0.99027731
0.990774526
0.9912588
0.991730122
0.99218848
0.992633864
0.993066263
0.993485666
0.993892065
0.994285448
0.994665808
0.995033134
0.995387418
0.995728653
0.996056829
0.996371939
0.996673975
0.996962931
0.997238799
0.997501573
0.997751247
0.997987815
0.998211271
0.99842161
0.998618827
0.998802917
0.998973876
0.999131701
0.999276386
0.999407929
0.999526326
0.999631575
0.999723674
0.999802619
0.99986841
0.999921045
0.999960522
0.999986841
1
1
0.999986841
0.999960522
0.999921045
0.99986841
0.999802619
0.999723674
0.999631575
0.999526326
0.999407929
0.999276386
0.999131701
0.998973876
0.998802917
0.998618827
0.99842161
0.998211271
0.997987815
0.997751247
0.997501573
0.997238799
0.996962931
0.996673975
0.996371939
0.996056829
0.995728653
0.995387418
0.995033134
0.994665808
0.994285448
0.993892065
0.993485666
0.993066263
0.992633864
0.99218848
0.991730122
0.9912588
0.990774526
0.99027731
0.989767166
0.989244104
0.988708137
0.988159278
0.98759754
0.987022937
0.986435481
0.985835186
0.985222068
0.984596139
0.983957416
0.983305913
0.982641646
0.98196463
0.981274881
0.980572416
0.979857251
0.979129404
0.97838889
0.977635729
0.976869937
0.976091533
0.975300535
0.974496961
0.973680832
0.972852165
0.972010982
0.9711573
0.970291142
0.969412526
0.968521474
0.967618007
0.966702146
0.965773913
0.96483333
0.963880419
0.962915201
0.961937701
0.960947941
0.959945945
0.958931736
0.957905338
0.956866775
0.955816071
0.954753253
0.953678343
0.952591369
0.951492355
0.950381327
0.949258312
0.948123336
0.946976425
0.945817607
0.944646909
0.943464359
0.942269983
0.941063811
0.939845871
0.938616192
0.937374802
0.93612173
0.934857006
0.93358066
0.932292722
0.930993221
0.92968219
0.928359657
0.927025655
0.925680215
0.924323368
0.922955146
0.921575581
0.920184706
0.918782553
0.917369155
0.915944546
0.914508758
0.913061826
0.911603783
0.910134663
0.908654502
0.907163333
0.905661191
0.904148112
0.902624131
0.901089284
0.899543607
0.897987135
0.896419906
0.894841956
0.893253322
0.89165404
0.890044149
0.888423687
0.886792689
0.885151196
0.883499246
0.881836876
0.880164125
0.878481034
0.876787641
0.875083985
0.873370106
0.871646045
0.869911841
0.868167535
0.866413167
0.864648779
0.862874411
0.861090105
0.859295903
0.857491845
0.855677975
0.853854334
0.852020964
0.850177909
0.848325211
0.846462914
0.844591059
0.842709692
0.840818855
0.838918593
0.83700895
0.83508997
0.833161697
0.831224176
0.829277452
0.827321571
0.825356577
0.823382516
0.821399434
0.819407377
0.817406391
0.815396521
0.813377816
0.81135032
0.809314082
0.807269148
0.805215565
0.803153381
0.801082644
0.799003401
0.796915701
0.79481959
0.792715119
0.790602335
0.788481286
0.786352023
0.784214594
0.782069047
0.779915433
0.777753801
0.775584201
0.773406683
0.771221296
0.769028091
0.766827118
0.764618428
0.762402072
0.760178099
0.757946563
0.755707512
0.753461
0.751207077
0.748945795
0.746677206
0.744401361
0.742118313
0.739828114
0.737530816
0.735226472
0.732915134
0.730596855
0.728271689
0.725939688
0.723600905
0.721255394
0.718903208
0.7165444
0.714179025
0.711807137
0.709428788
0.707044034
0.704652929
0.702255526
0.699851881
0.697442048
0.695026081
0.692604036
0.690175967
0.687741929
0.685301978
0.682856169
0.680404557
0.677947198
0.675484147
0.673015459
0.670541192
0.6680614
0.66557614
0.663085467
0.660589438
0.658088109
0.655581537
0.653069778
0.650552888
0.648030924
0.645503943
0.642972001
0.640435156
0.637893465
0.635346984
0.632795771
0.630239882
0.627679376
0.62511431
0.62254474
0.619970724
0.617392321
0.614809588
0.612222581
0.60963136
0.607035982
0.604436505
0.601832986
0.599225485
0.596614058
0.593998764
0.591379662
0.588756809
0.586130263
0.583500084
0.580866329
0.578229057
0.575588327
0.572944196
0.570296723
0.567645968
0.564991988
0.562334842
0.55967459
0.557011289
0.554344998
0.551675777
0.549003684
0.546328778
0.543651118
0.540970762
0.53828777
0.535602201
0.532914113
0.530223566
0.527530618
0.524835328
0.522137757
0.519437961
0.516736002
0.514031937
0.511325826
0.508617727
0.5059077
0.503195805
0.500482099
0.497766642
0.495049493
0.492330711
0.489610356
0.486888485
0.484165159
0.481440436
0.478714375
0.475987036
0.473258476
0.470528756
0.467797934
0.465066069
0.462333219
0.459599445
0.456864804
0.454129355
0.451393158
0.44865627
0.445918751
0.44318066
0.440442054
0.437702993
0.434963536
0.43222374
0.429483664
0.426743367
0.424002907
0.421262342
0.418521732
0.415781133
0.413040604
0.410300204
0.407559991
0.404820022
0.402080356
0.39934105
0.396602163
0.393863752
0.391125875
0.388388589
0.385651953
0.382916024
0.38018086
0.377446517
0.374713053
0.371980526
0.369248992
0.366518509
0.363789134
0.361060924
0.358333935
0.355608225
0.35288385
0.350160867
0.347439333
0.344719303
0.342000834
0.339283983
0.336568806
0.333855358
0.331143696
0.328433876
0.325725953
0.323019984
0.320316023
0.317614127
0.31491435
0.312216748
0.309521376
0.30682829
0.304137544
0.301449193
0.298763291
0.296079894
0.293399056
0.290720831
0.288045274
0.285372439
0.282702379
0.280035149
0.277370802
0.274709393
