# Sequence Blocks
# Created by JEMRIS 2.8

[DEFINITIONS]
Scan_ID 2
Num_Blocks 160
Rot_Matrix 0 -1 -0 1 0 -0 0 0 1

# Format of blocks:
# #  D RF  GX  GY  GZ ADC
[BLOCKS]
  1  0  1   0   0   1  0
  2  0  0   2   3   4  0
  3  1  0   0   0   0  0
  4  0  0   5   0   0  1
  5  2  0   0   0   0  0
  6  0  1   0   0   1  0
  7  0  0   2   6   4  0
  8  1  0   0   0   0  0
  9  0  0   5   0   0  1
 10  2  0   0   0   0  0
 11  0  1   0   0   1  0
 12  0  0   2   7   4  0
 13  1  0   0   0   0  0
 14  0  0   5   0   0  1
 15  2  0   0   0   0  0
 16  0  1   0   0   1  0
 17  0  0   2   8   4  0
 18  1  0   0   0   0  0
 19  0  0   5   0   0  1
 20  2  0   0   0   0  0
 21  0  1   0   0   1  0
 22  0  0   2   9   4  0
 23  1  0   0   0   0  0
 24  0  0   5   0   0  1
 25  2  0   0   0   0  0
 26  0  1   0   0   1  0
 27  0  0   2  10   4  0
 28  1  0   0   0   0  0
 29  0  0   5   0   0  1
 30  2  0   0   0   0  0
 31  0  1   0   0   1  0
 32  0  0   2  11   4  0
 33  1  0   0   0   0  0
 34  0  0   5   0   0  1
 35  2  0   0   0   0  0
 36  0  1   0   0   1  0
 37  0  0   2  12   4  0
 38  1  0   0   0   0  0
 39  0  0   5   0   0  1
 40  2  0   0   0   0  0
 41  0  1   0   0   1  0
 42  0  0   2  13   4  0
 43  1  0   0   0   0  0
 44  0  0   5   0   0  1
 45  2  0   0   0   0  0
 46  0  1   0   0   1  0
 47  0  0   2  14   4  0
 48  1  0   0   0   0  0
 49  0  0   5   0   0  1
 50  2  0   0   0   0  0
 51  0  1   0   0   1  0
 52  0  0   2  15   4  0
 53  1  0   0   0   0  0
 54  0  0   5   0   0  1
 55  2  0   0   0   0  0
 56  0  1   0   0   1  0
 57  0  0   2  16   4  0
 58  1  0   0   0   0  0
 59  0  0   5   0   0  1
 60  2  0   0   0   0  0
 61  0  1   0   0   1  0
 62  0  0   2  17   4  0
 63  1  0   0   0   0  0
 64  0  0   5   0   0  1
 65  2  0   0   0   0  0
 66  0  1   0   0   1  0
 67  0  0   2  18   4  0
 68  1  0   0   0   0  0
 69  0  0   5   0   0  1
 70  2  0   0   0   0  0
 71  0  1   0   0   1  0
 72  0  0   2  19   4  0
 73  1  0   0   0   0  0
 74  0  0   5   0   0  1
 75  2  0   0   0   0  0
 76  0  1   0   0   1  0
 77  0  0   2  20   4  0
 78  1  0   0   0   0  0
 79  0  0   5   0   0  1
 80  2  0   0   0   0  0
 81  0  1   0   0   1  0
 82  0  0   2  21   4  0
 83  1  0   0   0   0  0
 84  0  0   5   0   0  1
 85  2  0   0   0   0  0
 86  0  1   0   0   1  0
 87  0  0   2  22   4  0
 88  1  0   0   0   0  0
 89  0  0   5   0   0  1
 90  2  0   0   0   0  0
 91  0  1   0   0   1  0
 92  0  0   2  23   4  0
 93  1  0   0   0   0  0
 94  0  0   5   0   0  1
 95  2  0   0   0   0  0
 96  0  1   0   0   1  0
 97  0  0   2  24   4  0
 98  1  0   0   0   0  0
 99  0  0   5   0   0  1
100  2  0   0   0   0  0
101  0  1   0   0   1  0
102  0  0   2  25   4  0
103  1  0   0   0   0  0
104  0  0   5   0   0  1
105  2  0   0   0   0  0
106  0  1   0   0   1  0
107  0  0   2  26   4  0
108  1  0   0   0   0  0
109  0  0   5   0   0  1
110  2  0   0   0   0  0
111  0  1   0   0   1  0
112  0  0   2  27   4  0
113  1  0   0   0   0  0
114  0  0   5   0   0  1
115  2  0   0   0   0  0
116  0  1   0   0   1  0
117  0  0   2  28   4  0
118  1  0   0   0   0  0
119  0  0   5   0   0  1
120  2  0   0   0   0  0
121  0  1   0   0   1  0
122  0  0   2  29   4  0
123  1  0   0   0   0  0
124  0  0   5   0   0  1
125  2  0   0   0   0  0
126  0  1   0   0   1  0
127  0  0   2  30   4  0
128  1  0   0   0   0  0
129  0  0   5   0   0  1
130  2  0   0   0   0  0
131  0  1   0   0   1  0
132  0  0   2  31   4  0
133  1  0   0   0   0  0
134  0  0   5   0   0  1
135  2  0   0   0   0  0
136  0  1   0   0   1  0
137  0  0   2  32   4  0
138  1  0   0   0   0  0
139  0  0   5   0   0  1
140  2  0   0   0   0  0
141  0  1   0   0   1  0
142  0  0   2  33   4  0
143  1  0   0   0   0  0
144  0  0   5   0   0  1
145  2  0   0   0   0  0
146  0  1   0   0   1  0
147  0  0   2  34   4  0
148  1  0   0   0   0  0
149  0  0   5   0   0  1
150  2  0   0   0   0  0
151  0  1   0   0   1  0
152  0  0   2  35   4  0
153  1  0   0   0   0  0
154  0  0   5   0   0  1
155  2  0   0   0   0  0
156  0  1   0   0   1  0
157  0  0   2  36   4  0
158  1  0   0   0   0  0
159  0  0   5   0   0  1
160  2  0   0   0   0  0

# Format of RF events:
# id amplitude mag_id phase_id freq phase
# ..        Hz   ....     ....   Hz   rad
[RF]
1   276.908986 1 2 0 0

# Format of trapezoid gradients:
# id amplitude rise flat fall
# ..      Hz/m   us   us   us
[TRAP]
 1      159154.9  30 4000  30
 2     -26797.66  10 2980  10
 3     -26755.85  10 2980  10
 4     -107616.5  20 2960  20
 5         25000  10 6400  10
 6     -25083.61  10 2980  10
 7     -23411.37  10 2980  10
 8     -21739.13  10 2980  10
 9     -20066.89  10 2980  10
10     -18394.65  10 2980  10
11     -16722.41  10 2980  10
12     -15050.17  10 2980  10
13     -13377.93  10 2980  10
14     -11705.69  10 2980  10
15     -10033.44  10 2980  10
16     -8361.204  10 2980  10
17     -6688.963  10 2980  10
18     -5016.722  10 2980  10
19     -3344.482  10 2980  10
20     -1672.241  10 2980  10
21             0   0 3000   0
22      1672.241  10 2980  10
23      3344.482  10 2980  10
24      5016.722  10 2980  10
25      6688.963  10 2980  10
26      8361.204  10 2980  10
27      10033.44  10 2980  10
28      11705.69  10 2980  10
29      13377.93  10 2980  10
30      15050.17  10 2980  10
31      16722.41  10 2980  10
32      18394.65  10 2980  10
33      20066.89  10 2980  10
34      21739.13  10 2980  10
35      23411.37  10 2980  10
36      25083.61  10 2980  10

# Format of ADC events:
# id num dwell delay freq phase
# ..  ..    ns    us   Hz   rad
[ADC]
 1  32 200000  10 0 0

# Format of delays:
# id delay (us)
[DELAYS]
1 1760
2 184770

# Sequence Shapes

[SHAPES]

shape_id 1
num_samples 4000
0.0002500625
0.0005026691
0.0005026691
8
0.0005072244
0.0005072244
8
0.0005113487
0.0005113487
8
0.0005150341
0.0005150341
8
0.0005182732
0.0005182732
8
0.0005210588
0.0005210588
8
0.000523384
0.000523384
8
0.0005252422
0.0005252422
8
0.0005266273
0.0005266273
8
0.0005275334
0.0005275334
8
0.000527955
0.000527955
8
0.0005278867
0.0005278867
8
0.0005273239
0.0005273239
8
0.0005262621
0.0005262621
8
0.000524697
0.000524697
8
0.0005226251
0.0005226251
8
0.0005200428
0.0005200428
8
0.0005169473
0.0005169473
8
0.0005133359
0.0005133359
8
0.0005092064
0.0005092064
8
0.0005045571
0.0005045571
8
0.0004993863
0.0004993863
8
0.0004936933
0.0004936933
8
0.0004874772
0.0004874772
8
0.000480738
0.000480738
8
0.0004734757
0.0004734757
8
0.000465691
0.000465691
8
0.000457385
0.000457385
8
0.0004485589
0.0004485589
8
0.0004392147
0.0004392147
8
0.0004293546
0.0004293546
8
0.0004189813
0.0004189813
8
0.0004080978
0.0004080978
8
0.0003967077
0.0003967077
8
0.0003848148
0.0003848148
8
0.0003724235
0.0003724235
8
0.0003595385
0.0003595385
8
0.0003461649
0.0003461649
8
0.0003323082
0.0003323082
8
0.0003179746
0.0003179746
8
0.0003031702
0.0003031702
8
0.0002879018
0.0002879018
8
0.0002721766
0.0002721766
8
0.0002560022
0.0002560022
8
0.0002393865
0.0002393865
8
0.0002223377
0.0002223377
8
0.0002048646
0.0002048646
8
0.0001869764
0.0001869764
8
0.0001686823
0.0001686823
8
0.0001499922
0.0001499922
8
0.0001309164
0.0001309164
8
0.0001114653
0.0001114653
8
9.164974e-05
9.164974e-05
8
7.148101e-05
7.148101e-05
8
5.097062e-05
5.097062e-05
8
3.013044e-05
3.013044e-05
8
8.972665e-06
8.972665e-06
8
-1.249022e-05
-1.249022e-05
8
-3.424541e-05
-3.424541e-05
8
-5.627982e-05
-5.627982e-05
8
-7.858006e-05
-7.858006e-05
8
-0.0001011325
-0.0001011325
8
-0.0001239232
-0.0001239232
8
-0.0001469379
-0.0001469379
8
-0.0001701624
-0.0001701624
8
-0.0001935818
-0.0001935818
8
-0.0002171813
-0.0002171813
8
-0.0002409458
-0.0002409458
8
-0.00026486
-0.00026486
8
-0.0002889083
-0.0002889083
8
-0.0003130751
-0.0003130751
8
-0.0003373445
-0.0003373445
8
-0.0003617004
-0.0003617004
8
-0.0003861266
-0.0003861266
8
-0.0004106069
-0.0004106069
8
-0.0004351247
-0.0004351247
8
-0.0004596635
-0.0004596635
8
-0.0004842065
-0.0004842065
8
-0.0005087371
-0.0005087371
8
-0.0005332383
-0.0005332383
8
-0.0005576932
-0.0005576932
8
-0.0005820849
-0.0005820849
8
-0.0006063962
-0.0006063962
8
-0.0006306102
-0.0006306102
8
-0.0006547098
-0.0006547098
8
-0.0006786778
-0.0006786778
8
-0.0007024972
-0.0007024972
8
-0.000726151
-0.000726151
8
-0.0007496221
-0.0007496221
8
-0.0007728935
-0.0007728935
8
-0.0007959483
-0.0007959483
8
-0.0008187696
-0.0008187696
8
-0.0008413407
-0.0008413407
8
-0.0008636448
-0.0008636448
8
-0.0008856655
-0.0008856655
8
-0.0009073862
-0.0009073862
8
-0.0009287907
-0.0009287907
8
-0.0009498627
-0.0009498627
8
-0.0009705863
-0.0009705863
8
-0.0009909456
-0.0009909456
7
9.554619e-06
0.001010925
0.001010925
8
0.001030509
0.001030509
8
0.001049682
0.001049682
8
0.00106843
0.00106843
8
0.001086737
0.001086737
8
0.001104589
0.001104589
8
0.001121971
0.001121971
8
0.00113887
0.00113887
8
0.001155272
0.001155272
8
0.001171163
0.001171163
8
0.00118653
0.00118653
8
0.001201361
0.001201361
8
0.001215642
0.001215642
8
0.001229361
0.001229361
8
0.001242507
0.001242507
8
0.001255068
0.001255068
8
0.001267032
0.001267032
8
0.00127839
0.00127839
8
0.00128913
0.00128913
8
0.001299242
0.001299242
8
0.001308717
0.001308717
8
0.001317546
0.001317546
8
0.001325719
0.001325719
8
0.001333229
0.001333229
8
0.001340066
0.001340066
8
0.001346224
0.001346224
8
0.001351696
0.001351696
8
0.001356474
0.001356474
8
0.001360552
0.001360552
8
0.001363925
0.001363925
8
0.001366587
0.001366587
8
0.001368534
0.001368534
8
0.00136976
0.00136976
8
0.001370263
0.001370263
8
0.001370037
0.001370037
8
0.001369082
0.001369082
8
0.001367393
0.001367393
8
0.001364969
0.001364969
8
0.001361809
0.001361809
8
0.001357912
0.001357912
8
0.001353276
0.001353276
8
0.001347902
0.001347902
8
0.00134179
0.00134179
8
0.001334941
0.001334941
8
0.001327357
0.001327357
8
0.00131904
0.00131904
8
0.001309992
0.001309992
8
0.001300216
0.001300216
8
0.001289715
0.001289715
8
0.001278494
0.001278494
8
0.001266556
0.001266556
8
0.001253907
0.001253907
8
0.001240553
0.001240553
8
0.001226498
0.001226498
8
0.001211749
0.001211749
8
0.001196314
0.001196314
8
0.001180199
0.001180199
8
0.001163412
0.001163412
8
0.001145962
0.001145962
8
0.001127857
0.001127857
8
0.001109106
0.001109106
8
0.001089719
0.001089719
8
0.001069706
0.001069706
8
0.001049077
0.001049077
8
0.001027844
0.001027844
8
0.001006017
0.001006017
8
0.0009836084
0.0009836084
8
0.0009606304
0.0009606304
8
0.0009370954
0.0009370954
8
0.0009130162
0.0009130162
8
0.0008884063
0.0008884063
8
0.0008632792
0.0008632792
8
0.000837649
0.000837649
8
0.0008115301
0.0008115301
8
0.0007849371
0.0007849371
8
0.0007578852
0.0007578852
8
0.0007303897
0.0007303897
8
0.0007024662
0.0007024662
8
0.0006741309
0.0006741309
8
0.0006453999
0.0006453999
8
0.0006162897
0.0006162897
8
0.0005868173
0.0005868173
8
0.0005569997
0.0005569997
8
0.0005268542
0.0005268542
8
0.0004963983
0.0004963983
8
0.0004656498
0.0004656498
8
0.0004346266
0.0004346266
8
0.000403347
0.000403347
8
0.0003718293
0.0003718293
8
0.0003400919
0.0003400919
8
0.0003081535
0.0003081535
8
0.000276033
0.000276033
8
0.0002437493
0.0002437493
8
0.0002113214
0.0002113214
8
0.0001787684
0.0001787684
8
0.0001461097
0.0001461097
8
0.0001133644
0.0001133644
8
8.055207e-05
8.055207e-05
8
4.769203e-05
4.769203e-05
8
1.480375e-05
1.480375e-05
8
-1.80933e-05
-1.80933e-05
8
-5.097963e-05
-5.097963e-05
8
-8.383578e-05
-8.383578e-05
8
-0.0001166423
-0.0001166423
8
-0.0001493797
-0.0001493797
8
-0.0001820288
-0.0001820288
8
-0.0002145701
-0.0002145701
8
-0.0002469845
-0.0002469845
8
-0.0002792527
-0.0002792527
8
-0.0003113559
-0.0003113559
8
-0.000343275
-0.000343275
8
-0.0003749912
-0.0003749912
8
-0.000406486
-0.000406486
8
-0.0004377408
-0.0004377408
8
-0.0004687373
-0.0004687373
8
-0.0004994573
-0.0004994573
8
-0.000529883
-0.000529883
8
-0.0005599965
-0.0005599965
8
-0.0005897804
-0.0005897804
8
-0.0006192173
-0.0006192173
8
-0.0006482903
-0.0006482903
8
-0.0006769825
-0.0006769825
8
-0.0007052774
-0.0007052774
8
-0.0007331587
-0.0007331587
8
-0.0007606106
-0.0007606106
8
-0.0007876173
-0.0007876173
8
-0.0008141635
-0.0008141635
8
-0.0008402343
-0.0008402343
8
-0.0008658148
-0.0008658148
8
-0.0008908908
-0.0008908908
8
-0.0009154483
-0.0009154483
8
-0.0009394736
-0.0009394736
8
-0.0009629535
-0.0009629535
8
-0.0009858751
-0.0009858751
8
-0.001008226
-0.001008226
8
-0.001029994
-0.001029994
8
-0.001051167
-0.001051167
8
-0.001071735
-0.001071735
8
-0.001091686
-0.001091686
8
-0.00111101
-0.00111101
8
-0.001129696
-0.001129696
8
-0.001147736
-0.001147736
8
-0.001165121
-0.001165121
8
-0.001181841
-0.001181841
8
-0.001197888
-0.001197888
8
-0.001213255
-0.001213255
8
-0.001227935
-0.001227935
8
-0.00124192
-0.00124192
8
-0.001255204
-0.001255204
8
-0.001267782
-0.001267782
8
-0.001279648
-0.001279648
8
-0.001290798
-0.001290798
8
-0.001301226
-0.001301226
8
-0.00131093
-0.00131093
8
-0.001319905
-0.001319905
8
-0.001328149
-0.001328149
8
-0.001335659
-0.001335659
8
-0.001342434
-0.001342434
8
-0.001348472
-0.001348472
8
-0.001353772
-0.001353772
8
-0.001358334
-0.001358334
8
-0.001362158
-0.001362158
8
-0.001365245
-0.001365245
8
-0.001367595
-0.001367595
8
-0.00136921
-0.00136921
8
-0.001370093
-0.001370093
8
-0.001370245
-0.001370245
8
-0.00136967
-0.00136967
8
-0.001368371
-0.001368371
8
-0.001366353
-0.001366353
8
-0.00136362
-0.00136362
8
-0.001360176
-0.001360176
8
-0.001356027
-0.001356027
8
-0.001351179
-0.001351179
8
-0.001345639
-0.001345639
8
-0.001339413
-0.001339413
8
-0.001332508
-0.001332508
8
-0.001324932
-0.001324932
8
-0.001316692
-0.001316692
8
-0.001307799
-0.001307799
8
-0.001298259
-0.001298259
8
-0.001288084
-0.001288084
8
-0.001277282
-0.001277282
8
-0.001265863
-0.001265863
8
-0.001253838
-0.001253838
8
-0.001241218
-0.001241218
8
-0.001228015
-0.001228015
8
-0.001214239
-0.001214239
8
-0.001199902
-0.001199902
8
-0.001185017
-0.001185017
8
-0.001169597
-0.001169597
8
-0.001153655
-0.001153655
8
-0.001137202
-0.001137202
8
-0.001120254
-0.001120254
8
-0.001102824
-0.001102824
8
-0.001084926
-0.001084926
8
-0.001066575
-0.001066575
8
-0.001047784
-0.001047784
8
-0.001028569
-0.001028569
8
-0.001008945
-0.001008945
7
-9.444338e-06
0.0009889265
0.0009889265
8
0.0009685301
0.0009685301
8
0.0009477709
0.0009477709
8
0.0009266649
0.0009266649
8
0.0009052281
0.0009052281
8
0.0008834767
0.0008834767
8
0.0008614269
0.0008614269
8
0.0008390953
0.0008390953
8
0.0008164984
0.0008164984
8
0.000793653
0.000793653
8
0.0007705758
0.0007705758
8
0.0007472837
0.0007472837
8
0.0007237936
0.0007237936
8
0.0007001225
0.0007001225
8
0.0006762874
0.0006762874
8
0.0006523055
0.0006523055
8
0.0006281937
0.0006281937
8
0.0006039692
0.0006039692
8
0.000579649
0.000579649
8
0.0005552503
0.0005552503
8
0.00053079
0.00053079
8
0.0005062851
0.0005062851
8
0.0004817525
0.0004817525
8
0.0004572091
0.0004572091
8
0.0004326717
0.0004326717
8
0.0004081569
0.0004081569
8
0.0003836813
0.0003836813
8
0.0003592614
0.0003592614
8
0.0003349134
0.0003349134
8
0.0003106536
0.0003106536
8
0.0002864979
0.0002864979
8
0.0002624623
0.0002624623
8
0.0002385624
0.0002385624
8
0.0002148137
0.0002148137
8
0.0001912315
0.0001912315
8
0.0001678309
0.0001678309
8
0.0001446268
0.0001446268
8
0.0001216338
0.0001216338
8
9.886629e-05
9.886629e-05
8
7.633846e-05
7.633846e-05
8
5.406419e-05
5.406419e-05
8
3.205711e-05
3.205711e-05
8
1.033056e-05
1.033056e-05
8
-1.110238e-05
-1.110238e-05
8
-3.222896e-05
-3.222896e-05
8
-5.30367e-05
-5.30367e-05
8
-7.351345e-05
-7.351345e-05
8
-9.364738e-05
-9.364738e-05
8
-0.000113427
-0.000113427
8
-0.000132841
-0.000132841
8
-0.0001518788
-0.0001518788
8
-0.0001705297
-0.0001705297
8
-0.0001887836
-0.0001887836
8
-0.0002066308
-0.0002066308
8
-0.0002240618
-0.0002240618
8
-0.0002410677
-0.0002410677
8
-0.0002576396
-0.0002576396
8
-0.0002737695
-0.0002737695
8
-0.0002894493
-0.0002894493
8
-0.0003046716
-0.0003046716
8
-0.0003194292
-0.0003194292
8
-0.0003337155
-0.0003337155
8
-0.0003475241
-0.0003475241
8
-0.000360849
-0.000360849
8
-0.0003736849
-0.0003736849
8
-0.0003860266
-0.0003860266
8
-0.0003978694
-0.0003978694
8
-0.0004092091
-0.0004092091
8
-0.0004200417
-0.0004200417
8
-0.0004303638
-0.0004303638
8
-0.0004401724
-0.0004401724
8
-0.0004494649
-0.0004494649
8
-0.000458239
-0.000458239
8
-0.000466493
-0.000466493
8
-0.0004742254
-0.0004742254
8
-0.0004814354
-0.0004814354
8
-0.0004881224
-0.0004881224
8
-0.0004942861
-0.0004942861
8
-0.0004999269
-0.0004999269
8
-0.0005050454
-0.0005050454
8
-0.0005096428
-0.0005096428
8
-0.0005137203
-0.0005137203
8
-0.00051728
-0.00051728
8
-0.0005203241
-0.0005203241
8
-0.0005228552
-0.0005228552
8
-0.0005248763
-0.0005248763
8
-0.0005263908
-0.0005263908
8
-0.0005274026
-0.0005274026
8
-0.0005279157
-0.0005279157
8
-0.0005279348
-0.0005279348
8
-0.0005274645
-0.0005274645
8
-0.0005265103
-0.0005265103
8
-0.0005250776
-0.0005250776
8
-0.0005231724
-0.0005231724
8
-0.0005208008
-0.0005208008
8
-0.0005179696
-0.0005179696
8
-0.0005146856
-0.0005146856
8
-0.0005109559
-0.0005109559
8
-0.0005067882
-0.0005067882
8
-0.0005021901
-0.0005021901
7

shape_id 2
num_samples 4000
0.5
0
0
997
-0.5
0
0
1997
0.5
0
0
997


