# Sequence Blocks
# Created by JEMRIS 2.8

[DEFINITIONS]
Scan_ID 3
Num_Blocks 8
Rot_Matrix 0 -1 -0 1 0 -0 0 0 1

# Format of blocks:
##  D RF  GX  GY  GZ ADC
[BLOCKS]
1  0  1   0   1   0  0
2  0  0   0   2   0  0
3  1  0   0   0   0  0
4  0  2   3   0   0  0
5  2  0   0   0   0  0
6  0  2   0   0   4  0
7  3  0   0   0   0  0
8  0  0   0   0   0  1

# Format of RF events:
# id amplitude mag_id phase_id freq phase
# ..        Hz   ....     ....   Hz   rad
[RF]
1   246.863892 1 2 0 0
2   493.727784 1 2 0 0

# Format of trapezoid gradients:
# id amplitude rise flat fall
# ..      Hz/m   us   us   us
[TRAP]
 1      200106.3  30 3940  30
 2     -201629.9  30 1940  30
 3      200106.3  30 3940  30
 4      200106.3  30 3940  30

# Format of ADC events:
# id num dwell delay freq phase
# ..  ..    ns    us   Hz   rad
[ADC]
 1 256  25000   0 0 0

# Format of delays:
# id delay (us)
[DELAYS]
1 19000
2 46000
3 44800

# Sequence Shapes

[SHAPES]

shape_id 1
num_samples 4000
3.856279e-11
3.588134e-08
3.588134e-08
8
2.323701e-07
2.323701e-07
8
6.188511e-07
6.188511e-07
8
1.197773e-06
1.197773e-06
8
1.970951e-06
1.970951e-06
8
2.939553e-06
2.939553e-06
8
4.104086e-06
4.104086e-06
8
5.464388e-06
5.464388e-06
8
7.019615e-06
7.019615e-06
8
8.768233e-06
8.768233e-06
8
1.070801e-05
1.070801e-05
8
1.283602e-05
1.283602e-05
8
1.514863e-05
1.514863e-05
8
1.764149e-05
1.764149e-05
8
2.030956e-05
2.030956e-05
8
2.314706e-05
2.314706e-05
8
2.614755e-05
2.614755e-05
8
2.930386e-05
2.930386e-05
8
3.260812e-05
3.260812e-05
8
3.60518e-05
3.60518e-05
8
3.962567e-05
3.962567e-05
8
4.331984e-05
4.331984e-05
8
4.712377e-05
4.712377e-05
8
5.102625e-05
5.102625e-05
8
5.501549e-05
5.501549e-05
8
5.907905e-05
5.907905e-05
8
6.320391e-05
6.320391e-05
8
6.737649e-05
6.737649e-05
8
7.158265e-05
7.158265e-05
8
7.580773e-05
7.580773e-05
8
8.003655e-05
8.003655e-05
8
8.425348e-05
8.425348e-05
8
8.844242e-05
8.844242e-05
8
9.258684e-05
9.258684e-05
8
9.666986e-05
9.666986e-05
8
0.0001006742
0.0001006742
8
0.0001045822
0.0001045822
8
0.0001083761
0.0001083761
8
0.0001120376
0.0001120376
8
0.0001155484
0.0001155484
8
0.0001188899
0.0001188899
8
0.0001220434
0.0001220434
8
0.0001249899
0.0001249899
8
0.0001277107
0.0001277107
8
0.0001301867
0.0001301867
8
0.0001323989
0.0001323989
8
0.0001343285
0.0001343285
8
0.0001359565
0.0001359565
8
0.0001372643
0.0001372643
8
0.0001382333
0.0001382333
8
0.0001388452
0.0001388452
8
0.0001390817
0.0001390817
8
0.0001389251
0.0001389251
8
0.0001383579
0.0001383579
8
0.0001373629
0.0001373629
8
0.0001359235
0.0001359235
8
0.0001340233
0.0001340233
8
0.0001316466
0.0001316466
8
0.0001287782
0.0001287782
8
0.0001254033
0.0001254033
8
0.0001215078
0.0001215078
8
0.0001170785
0.0001170785
8
0.0001121025
0.0001121025
8
0.0001065678
0.0001065678
8
0.0001004631
0.0001004631
8
9.377806e-05
9.377806e-05
8
8.650297e-05
8.650297e-05
8
7.862906e-05
7.862906e-05
8
7.014844e-05
7.014844e-05
8
6.105412e-05
6.105412e-05
8
5.134009e-05
5.134009e-05
8
4.100129e-05
4.100129e-05
8
3.003366e-05
3.003366e-05
8
1.843417e-05
1.843417e-05
8
6.200838e-06
6.200838e-06
8
-6.667259e-06
-6.667259e-06
8
-2.016996e-05
-2.016996e-05
8
-3.430599e-05
-3.430599e-05
8
-4.907297e-05
-4.907297e-05
8
-6.446739e-05
-6.446739e-05
8
-8.048458e-05
-8.048458e-05
8
-9.711875e-05
-9.711875e-05
8
-0.0001143629
-0.0001143629
8
-0.000132209
-0.000132209
8
-0.0001506476
-0.0001506476
8
-0.0001696682
-0.0001696682
8
-0.0001892594
-0.0001892594
8
-0.0002094082
-0.0002094082
8
-0.0002301006
-0.0002301006
8
-0.0002513216
-0.0002513216
8
-0.0002730549
-0.0002730549
8
-0.0002952831
-0.0002952831
8
-0.0003179875
-0.0003179875
8
-0.0003411487
-0.0003411487
8
-0.0003647459
-0.0003647459
8
-0.0003887572
-0.0003887572
8
-0.0004131599
-0.0004131599
8
-0.00043793
-0.00043793
8
-0.0004630428
-0.0004630428
8
-0.0004884723
-0.0004884723
7
1.217078e-05
0.0005141918
0.0005141918
8
0.0005401737
0.0005401737
8
0.0005663893
0.0005663893
8
0.0005928092
0.0005928092
8
0.0006194032
0.0006194032
8
0.0006461404
0.0006461404
8
0.0006729891
0.0006729891
8
0.0006999169
0.0006999169
8
0.0007268907
0.0007268907
8
0.0007538769
0.0007538769
8
0.0007808414
0.0007808414
8
0.0008077496
0.0008077496
8
0.0008345662
0.0008345662
8
0.0008612558
0.0008612558
8
0.0008877825
0.0008877825
8
0.0009141102
0.0009141102
8
0.0009402024
0.0009402024
8
0.0009660226
0.0009660226
8
0.0009915339
0.0009915339
8
0.0010167
0.0010167
8
0.001041483
0.001041483
8
0.001065847
0.001065847
8
0.001089755
0.001089755
8
0.001113171
0.001113171
8
0.001136057
0.001136057
8
0.001158379
0.001158379
8
0.0011801
0.0011801
8
0.001201184
0.001201184
8
0.001221598
0.001221598
8
0.001241306
0.001241306
8
0.001260274
0.001260274
8
0.00127847
0.00127847
8
0.00129586
0.00129586
8
0.001312412
0.001312412
8
0.001328096
0.001328096
8
0.001342881
0.001342881
8
0.001356738
0.001356738
8
0.001369637
0.001369637
8
0.001381552
0.001381552
8
0.001392455
0.001392455
8
0.001402323
0.001402323
8
0.001411129
0.001411129
8
0.001418851
0.001418851
8
0.001425467
0.001425467
8
0.001430955
0.001430955
8
0.001435298
0.001435298
8
0.001438476
0.001438476
8
0.001440473
0.001440473
8
0.001441274
0.001441274
8
0.001440864
0.001440864
8
0.001439231
0.001439231
8
0.001436364
0.001436364
8
0.001432253
0.001432253
8
0.001426891
0.001426891
8
0.001420272
0.001420272
8
0.001412389
0.001412389
8
0.001403241
0.001403241
8
0.001392825
0.001392825
8
0.001381142
0.001381142
8
0.001368193
0.001368193
8
0.001353981
0.001353981
8
0.001338511
0.001338511
8
0.00132179
0.00132179
8
0.001303825
0.001303825
8
0.001284627
0.001284627
8
0.001264208
0.001264208
8
0.001242579
0.001242579
8
0.001219756
0.001219756
8
0.001195754
0.001195754
8
0.001170592
0.001170592
8
0.001144289
0.001144289
8
0.001116866
0.001116866
8
0.001088344
0.001088344
8
0.001058749
0.001058749
8
0.001028105
0.001028105
8
0.0009964392
0.0009964392
8
0.0009637793
0.0009637793
8
0.0009301551
0.0009301551
8
0.0008955972
0.0008955972
8
0.0008601379
0.0008601379
8
0.0008238104
0.0008238104
8
0.0007866492
0.0007866492
8
0.00074869
0.00074869
8
0.0007099696
0.0007099696
8
0.0006705257
0.0006705257
8
0.0006303972
0.0006303972
8
0.0005896238
0.0005896238
8
0.0005482462
0.0005482462
8
0.0005063059
0.0005063059
8
0.0004638451
0.0004638451
8
0.000420907
0.000420907
8
0.000377535
0.000377535
8
0.0003337736
0.0003337736
8
0.0002896674
0.0002896674
8
0.0002452619
0.0002452619
8
0.0002006027
0.0002006027
8
0.0001557359
0.0001557359
8
0.0001107079
0.0001107079
8
6.556514e-05
6.556514e-05
8
2.035448e-05
2.035448e-05
8
-2.487727e-05
-2.487727e-05
8
-7.008324e-05
-7.008324e-05
8
-0.0001152166
-0.0001152166
8
-0.0001602306
-0.0001602306
8
-0.0002050788
-0.0002050788
8
-0.0002497146
-0.0002497146
8
-0.0002940923
-0.0002940923
8
-0.000338166
-0.000338166
8
-0.0003818905
-0.0003818905
8
-0.000425221
-0.000425221
8
-0.0004681134
-0.0004681134
8
-0.000510524
-0.000510524
8
-0.00055241
-0.00055241
8
-0.000593729
-0.000593729
8
-0.0006344397
-0.0006344397
8
-0.0006745015
-0.0006745015
8
-0.0007138748
-0.0007138748
8
-0.0007525208
-0.0007525208
8
-0.0007904018
-0.0007904018
8
-0.0008274813
-0.0008274813
8
-0.0008637235
-0.0008637235
8
-0.0008990941
-0.0008990941
8
-0.00093356
-0.00093356
8
-0.0009670892
-0.0009670892
8
-0.000999651
-0.000999651
8
-0.001031216
-0.001031216
8
-0.001061756
-0.001061756
8
-0.001091245
-0.001091245
8
-0.001119658
-0.001119658
8
-0.00114697
-0.00114697
8
-0.00117316
-0.00117316
8
-0.001198207
-0.001198207
8
-0.001222091
-0.001222091
8
-0.001244796
-0.001244796
8
-0.001266304
-0.001266304
8
-0.001286602
-0.001286602
8
-0.001305677
-0.001305677
8
-0.001323518
-0.001323518
8
-0.001340114
-0.001340114
8
-0.001355458
-0.001355458
8
-0.001369544
-0.001369544
8
-0.001382367
-0.001382367
8
-0.001393924
-0.001393924
8
-0.001404213
-0.001404213
8
-0.001413234
-0.001413234
8
-0.00142099
-0.00142099
8
-0.001427484
-0.001427484
8
-0.00143272
-0.00143272
8
-0.001436706
-0.001436706
8
-0.001439449
-0.001439449
8
-0.00144096
-0.00144096
8
-0.001441248
-0.001441248
8
-0.001440327
-0.001440327
8
-0.001438211
-0.001438211
8
-0.001434916
-0.001434916
8
-0.001430458
-0.001430458
8
-0.001424855
-0.001424855
8
-0.001418128
-0.001418128
8
-0.001410296
-0.001410296
8
-0.001401383
-0.001401383
8
-0.001391411
-0.001391411
8
-0.001380405
-0.001380405
8
-0.001368391
-0.001368391
8
-0.001355394
-0.001355394
8
-0.001341444
-0.001341444
8
-0.001326568
-0.001326568
8
-0.001310796
-0.001310796
8
-0.001294158
-0.001294158
8
-0.001276686
-0.001276686
8
-0.001258412
-0.001258412
8
-0.001239368
-0.001239368
8
-0.001219588
-0.001219588
8
-0.001199106
-0.001199106
8
-0.001177956
-0.001177956
8
-0.001156173
-0.001156173
8
-0.001133793
-0.001133793
8
-0.001110852
-0.001110852
8
-0.001087386
-0.001087386
8
-0.00106343
-0.00106343
8
-0.001039023
-0.001039023
8
-0.0010142
-0.0010142
8
-0.0009889977
-0.0009889977
8
-0.0009634538
-0.0009634538
8
-0.0009376048
-0.0009376048
8
-0.0009114874
-0.0009114874
8
-0.0008851382
-0.0008851382
8
-0.0008585936
-0.0008585936
8
-0.0008318897
-0.0008318897
8
-0.0008050623
-0.0008050623
8
-0.000778147
-0.000778147
8
-0.0007511787
-0.0007511787
8
-0.0007241922
-0.0007241922
8
-0.0006972215
-0.0006972215
8
-0.0006703001
-0.0006703001
8
-0.0006434612
-0.0006434612
8
-0.0006167369
-0.0006167369
8
-0.0005901588
-0.0005901588
8
-0.000563758
-0.000563758
8
-0.0005375645
-0.0005375645
8
-0.0005116076
-0.0005116076
7
-1.224993e-05
0.0004859159
0.0004859159
8
0.0004605168
0.0004605168
8
0.0004354372
0.0004354372
8
0.0004107027
0.0004107027
8
0.0003863381
0.0003863381
8
0.0003623672
0.0003623672
8
0.0003388126
0.0003388126
8
0.0003156962
0.0003156962
8
0.0002930385
0.0002930385
8
0.000270859
0.000270859
8
0.0002491762
0.0002491762
8
0.0002280073
0.0002280073
8
0.0002073686
0.0002073686
8
0.000187275
0.000187275
8
0.0001677403
0.0001677403
8
0.0001487773
0.0001487773
8
0.0001303975
0.0001303975
8
0.0001126113
0.0001126113
8
9.542776e-05
9.542776e-05
8
7.885499e-05
7.885499e-05
8
6.289983e-05
6.289983e-05
8
4.756797e-05
4.756797e-05
8
3.286394e-05
3.286394e-05
8
1.879116e-05
1.879116e-05
8
5.351881e-06
5.351881e-06
8
-7.452729e-06
-7.452729e-06
8
-1.962262e-05
-1.962262e-05
8
-3.115881e-05
-3.115881e-05
8
-4.206341e-05
-4.206341e-05
8
-5.233953e-05
-5.233953e-05
8
-6.199135e-05
-6.199135e-05
8
-7.102401e-05
-7.102401e-05
8
-7.944363e-05
-7.944363e-05
8
-8.725729e-05
-8.725729e-05
8
-9.447297e-05
-9.447297e-05
8
-0.0001010995
-0.0001010995
8
-0.0001071467
-0.0001071467
8
-0.000112625
-0.000112625
8
-0.0001175458
-0.0001175458
8
-0.0001219212
-0.0001219212
8
-0.000125764
-0.000125764
8
-0.0001290876
-0.0001290876
8
-0.0001319062
-0.0001319062
8
-0.0001342345
-0.0001342345
8
-0.0001360879
-0.0001360879
8
-0.0001374822
-0.0001374822
8
-0.0001384336
-0.0001384336
8
-0.0001389589
-0.0001389589
8
-0.0001390754
-0.0001390754
8
-0.0001388006
-0.0001388006
8
-0.0001381522
-0.0001381522
8
-0.0001371485
-0.0001371485
8
-0.0001358078
-0.0001358078
8
-0.0001341488
-0.0001341488
8
-0.0001321901
-0.0001321901
8
-0.0001299506
-0.0001299506
8
-0.0001274493
-0.0001274493
8
-0.0001247051
-0.0001247051
8
-0.000121737
-0.000121737
8
-0.0001185639
-0.0001185639
8
-0.0001152046
-0.0001152046
8
-0.0001116779
-0.0001116779
8
-0.0001080024
-0.0001080024
8
-0.0001041963
-0.0001041963
8
-0.0001002778
-0.0001002778
8
-9.626481e-05
-9.626481e-05
8
-9.217488e-05
-9.217488e-05
8
-8.802525e-05
-8.802525e-05
8
-8.383278e-05
-8.383278e-05
8
-7.961394e-05
-7.961394e-05
8
-7.53848e-05
-7.53848e-05
8
-7.116094e-05
-7.116094e-05
8
-6.695748e-05
-6.695748e-05
8
-6.278905e-05
-6.278905e-05
8
-5.866971e-05
-5.866971e-05
8
-5.461301e-05
-5.461301e-05
8
-5.06319e-05
-5.06319e-05
8
-4.673875e-05
-4.673875e-05
8
-4.294531e-05
-4.294531e-05
8
-3.92627e-05
-3.92627e-05
8
-3.570142e-05
-3.570142e-05
8
-3.227127e-05
-3.227127e-05
8
-2.898143e-05
-2.898143e-05
8
-2.584037e-05
-2.584037e-05
8
-2.285587e-05
-2.285587e-05
8
-2.003502e-05
-2.003502e-05
8
-1.738423e-05
-1.738423e-05
8
-1.490918e-05
-1.490918e-05
8
-1.261485e-05
-1.261485e-05
8
-1.050551e-05
-1.050551e-05
8
-8.584727e-06
-8.584727e-06
8
-6.855359e-06
-6.855359e-06
8
-5.319567e-06
-5.319567e-06
8
-3.978815e-06
-3.978815e-06
8
-2.833879e-06
-2.833879e-06
8
-1.884853e-06
-1.884853e-06
8
-1.131164e-06
-1.131164e-06
8
-5.715786e-07
-5.715786e-07
8
-2.042174e-07
-2.042174e-07
8
-2.656924e-08
-2.656924e-08
7

shape_id 2
num_samples 4000
0.5
0
0
997
-0.5
0
0
1997
0.5
0
0
997


