# Pulseq sequence file
# Created by MATLAB mr toolbox

[VERSION]
major 1
minor 4
revision 1

[DEFINITIONS]
AdcRasterTime 1e-10 
BlockDurationRaster 1e-05 
FOV 0.256 0.256 0.003 
GradientRasterTime 1e-05 
Name gre2d_pTxSingleChan_8Tx_forDario 
RadiofrequencyRasterTime 1e-05 
TotalDuration 41.16992 

# Format of blocks:
# NUM DUR RF  GX  GY  GZ  ADC  EXT
[BLOCKS]
    1 418   1   0   0   1  0  0
    2 100   0   2   3   4  0  0
    3  62   0   0   0   0  0  0
    4 390   0   5   0   0  1  0
    5 259   0   6   7   8  0  0
    6 418   2   0   0   1  0  0
    7 100   0   2   9   4  0  0
    8  62   0   0   0   0  0  0
    9 390   0   5   0   0  2  0
   10 259   0   6  10   8  0  0
   11 418   3   0   0   1  0  0
   12 100   0   2  11   4  0  0
   13  62   0   0   0   0  0  0
   14 390   0   5   0   0  3  0
   15 259   0   6  12   8  0  0
   16 418   4   0   0   1  0  0
   17 100   0   2  13   4  0  0
   18  62   0   0   0   0  0  0
   19 390   0   5   0   0  4  0
   20 259   0   6  14   8  0  0
   21 418   5   0   0   1  0  0
   22 100   0   2  15   4  0  0
   23  62   0   0   0   0  0  0
   24 390   0   5   0   0  5  0
   25 259   0   6  16   8  0  0
   26 418   6   0   0   1  0  0
   27 100   0   2  17   4  0  0
   28  62   0   0   0   0  0  0
   29 390   0   5   0   0  6  0
   30 259   0   6  18   8  0  0
   31 418   7   0   0   1  0  0
   32 100   0   2  19   4  0  0
   33  62   0   0   0   0  0  0
   34 390   0   5   0   0  7  0
   35 259   0   6  20   8  0  0
   36 418   8   0   0   1  0  0
   37 100   0   2  21   4  0  0
   38  62   0   0   0   0  0  0
   39 390   0   5   0   0  8  0
   40 259   0   6  22   8  0  0
   41 418   9   0   0   1  0  0
   42 100   0   2  23   4  0  0
   43  62   0   0   0   0  0  0
   44 390   0   5   0   0  9  0
   45 259   0   6  24   8  0  0
   46 418  10   0   0   1  0  0
   47 100   0   2  25   4  0  0
   48  62   0   0   0   0  0  0
   49 390   0   5   0   0 10  0
   50 259   0   6  26   8  0  0
   51 418   6   0   0   1  0  0
   52 100   0   2  27   4  0  0
   53  62   0   0   0   0  0  0
   54 390   0   5   0   0  6  0
   55 259   0   6  28   8  0  0
   56 418  11   0   0   1  0  0
   57 100   0   2  29   4  0  0
   58  62   0   0   0   0  0  0
   59 390   0   5   0   0 11  0
   60 259   0   6  30   8  0  0
   61 418  12   0   0   1  0  0
   62 100   0   2  31   4  0  0
   63  62   0   0   0   0  0  0
   64 390   0   5   0   0 12  0
   65 259   0   6  32   8  0  0
   66 418  13   0   0   1  0  0
   67 100   0   2  33   4  0  0
   68  62   0   0   0   0  0  0
   69 390   0   5   0   0 13  0
   70 259   0   6  34   8  0  0
   71 418  14   0   0   1  0  0
   72 100   0   2  35   4  0  0
   73  62   0   0   0   0  0  0
   74 390   0   5   0   0 14  0
   75 259   0   6  36   8  0  0
   76 418   1   0   0   1  0  0
   77 100   0   2  37   4  0  0
   78  62   0   0   0   0  0  0
   79 390   0   5   0   0  1  0
   80 259   0   6  38   8  0  0
   81 418  15   0   0   1  0  0
   82 100   0   2  39   4  0  0
   83  62   0   0   0   0  0  0
   84 390   0   5   0   0 15  0
   85 259   0   6  40   8  0  0
   86 418  16   0   0   1  0  0
   87 100   0   2  41   4  0  0
   88  62   0   0   0   0  0  0
   89 390   0   5   0   0 16  0
   90 259   0   6  42   8  0  0
   91 418  13   0   0   1  0  0
   92 100   0   2  43   4  0  0
   93  62   0   0   0   0  0  0
   94 390   0   5   0   0 13  0
   95 259   0   6  44   8  0  0
   96 418  17   0   0   1  0  0
   97 100   0   2  45   4  0  0
   98  62   0   0   0   0  0  0
   99 390   0   5   0   0 17  0
  100 259   0   6  46   8  0  0
  101 418   5   0   0   1  0  0
  102 100   0   2  47   4  0  0
  103  62   0   0   0   0  0  0
  104 390   0   5   0   0  5  0
  105 259   0   6  48   8  0  0
  106 418  18   0   0   1  0  0
  107 100   0   2  49   4  0  0
  108  62   0   0   0   0  0  0
  109 390   0   5   0   0 18  0
  110 259   0   6  50   8  0  0
  111 418  19   0   0   1  0  0
  112 100   0   2  51   4  0  0
  113  62   0   0   0   0  0  0
  114 390   0   5   0   0 19  0
  115 259   0   6  52   8  0  0
  116 418   9   0   0   1  0  0
  117 100   0   2  53   4  0  0
  118  62   0   0   0   0  0  0
  119 390   0   5   0   0  9  0
  120 259   0   6  54   8  0  0
  121 418  20   0   0   1  0  0
  122 100   0   2  55   4  0  0
  123  62   0   0   0   0  0  0
  124 390   0   5   0   0 20  0
  125 259   0   6  56   8  0  0
  126 418  10   0   0   1  0  0
  127 100   0   2  57   4  0  0
  128  62   0   0   0   0  0  0
  129 390   0   5   0   0 10  0
  130 259   0   6  58   8  0  0
  131 418  18   0   0   1  0  0
  132 100   0   2  59   4  0  0
  133  62   0   0   0   0  0  0
  134 390   0   5   0   0 18  0
  135 259   0   6  60   8  0  0
  136 418  21   0   0   1  0  0
  137 100   0   2  61   4  0  0
  138  62   0   0   0   0  0  0
  139 390   0   5   0   0 21  0
  140 259   0   6  62   8  0  0
  141 418   4   0   0   1  0  0
  142 100   0   2  63   4  0  0
  143  62   0   0   0   0  0  0
  144 390   0   5   0   0  4  0
  145 259   0   6  64   8  0  0
  146 418  22   0   0   1  0  0
  147 100   0   2  65   4  0  0
  148  62   0   0   0   0  0  0
  149 390   0   5   0   0 22  0
  150 259   0   6  66   8  0  0
  151 418  14   0   0   1  0  0
  152 100   0   2  67   4  0  0
  153  62   0   0   0   0  0  0
  154 390   0   5   0   0 14  0
  155 259   0   6  68   8  0  0
  156 418  15   0   0   1  0  0
  157 100   0   2  69   4  0  0
  158  62   0   0   0   0  0  0
  159 390   0   5   0   0 15  0
  160 259   0   6  70   8  0  0
  161 418  23   0   0   1  0  0
  162 100   0   2  71   4  0  0
  163  62   0   0   0   0  0  0
  164 390   0   5   0   0 23  0
  165 259   0   6  72   8  0  0
  166 418   2   0   0   1  0  0
  167 100   0   2  73   4  0  0
  168  62   0   0   0   0  0  0
  169 390   0   5   0   0  2  0
  170 259   0   6  74   8  0  0
  171 418  22   0   0   1  0  0
  172 100   0   2  75   4  0  0
  173  62   0   0   0   0  0  0
  174 390   0   5   0   0 22  0
  175 259   0   6  76   8  0  0
  176 418  17   0   0   1  0  0
  177 100   0   2  77   4  0  0
  178  62   0   0   0   0  0  0
  179 390   0   5   0   0 17  0
  180 259   0   6  78   8  0  0
  181 418  11   0   0   1  0  0
  182 100   0   2  79   4  0  0
  183  62   0   0   0   0  0  0
  184 390   0   5   0   0 11  0
  185 259   0   6  80   8  0  0
  186 418  24   0   0   1  0  0
  187 100   0   2  81   4  0  0
  188  62   0   0   0   0  0  0
  189 390   0   5   0   0 24  0
  190 259   0   6  82   8  0  0
  191 418   7   0   0   1  0  0
  192 100   0   2  83   4  0  0
  193  62   0   0   0   0  0  0
  194 390   0   5   0   0  7  0
  195 259   0   6  84   8  0  0
  196 418  20   0   0   1  0  0
  197 100   0   2  85   4  0  0
  198  62   0   0   0   0  0  0
  199 390   0   5   0   0 20  0
  200 259   0   6  86   8  0  0
  201 418  20   0   0   1  0  0
  202 100   0   2  87   4  0  0
  203  62   0   0   0   0  0  0
  204 390   0   5   0   0 20  0
  205 259   0   6  88   8  0  0
  206 418   7   0   0   1  0  0
  207 100   0   2  89   4  0  0
  208  62   0   0   0   0  0  0
  209 390   0   5   0   0  7  0
  210 259   0   6  90   8  0  0
  211 418  24   0   0   1  0  0
  212 100   0   2  91   4  0  0
  213  62   0   0   0   0  0  0
  214 390   0   5   0   0 24  0
  215 259   0   6  92   8  0  0
  216 418  11   0   0   1  0  0
  217 100   0   2  93   4  0  0
  218  62   0   0   0   0  0  0
  219 390   0   5   0   0 11  0
  220 259   0   6  94   8  0  0
  221 418  17   0   0   1  0  0
  222 100   0   2  95   4  0  0
  223  62   0   0   0   0  0  0
  224 390   0   5   0   0 17  0
  225 259   0   6  96   8  0  0
  226 418  22   0   0   1  0  0
  227 100   0   2  97   4  0  0
  228  62   0   0   0   0  0  0
  229 390   0   5   0   0 22  0
  230 259   0   6  98   8  0  0
  231 418   2   0   0   1  0  0
  232 100   0   2  99   4  0  0
  233  62   0   0   0   0  0  0
  234 390   0   5   0   0  2  0
  235 259   0   6 100   8  0  0
  236 418  23   0   0   1  0  0
  237 100   0   2 101   4  0  0
  238  62   0   0   0   0  0  0
  239 390   0   5   0   0 23  0
  240 259   0   6 102   8  0  0
  241 418  15   0   0   1  0  0
  242 100   0   2 103   4  0  0
  243  62   0   0   0   0  0  0
  244 390   0   5   0   0 15  0
  245 259   0   6 104   8  0  0
  246 418  14   0   0   1  0  0
  247 100   0   2 105   4  0  0
  248  62   0   0   0   0  0  0
  249 390   0   5   0   0 14  0
  250 259   0   6 106   8  0  0
  251 418  22   0   0   1  0  0
  252 100   0   2 107   4  0  0
  253  62   0   0   0   0  0  0
  254 390   0   5   0   0 22  0
  255 259   0   6 108   8  0  0
  256 418   4   0   0   1  0  0
  257 100   0   2 109   4  0  0
  258  62   0   0   0   0  0  0
  259 390   0   5   0   0  4  0
  260 259   0   6 110   8  0  0
  261 418  21   0   0   1  0  0
  262 100   0   2 111   4  0  0
  263  62   0   0   0   0  0  0
  264 390   0   5   0   0 21  0
  265 259   0   6 112   8  0  0
  266 418  18   0   0   1  0  0
  267 100   0   2 113   4  0  0
  268  62   0   0   0   0  0  0
  269 390   0   5   0   0 18  0
  270 259   0   6 114   8  0  0
  271 418  10   0   0   1  0  0
  272 100   0   2 115   4  0  0
  273  62   0   0   0   0  0  0
  274 390   0   5   0   0 10  0
  275 259   0   6 116   8  0  0
  276 418  20   0   0   1  0  0
  277 100   0   2 117   4  0  0
  278  62   0   0   0   0  0  0
  279 390   0   5   0   0 20  0
  280 259   0   6 118   8  0  0
  281 418   9   0   0   1  0  0
  282 100   0   2 119   4  0  0
  283  62   0   0   0   0  0  0
  284 390   0   5   0   0  9  0
  285 259   0   6 120   8  0  0
  286 418  19   0   0   1  0  0
  287 100   0   2 121   4  0  0
  288  62   0   0   0   0  0  0
  289 390   0   5   0   0 19  0
  290 259   0   6 122   8  0  0
  291 418  18   0   0   1  0  0
  292 100   0   2 123   4  0  0
  293  62   0   0   0   0  0  0
  294 390   0   5   0   0 18  0
  295 259   0   6 124   8  0  0
  296 418   5   0   0   1  0  0
  297 100   0   2 125   4  0  0
  298  62   0   0   0   0  0  0
  299 390   0   5   0   0  5  0
  300 259   0   6 126   8  0  0
  301 418  17   0   0   1  0  0
[RF]
1      55.8226 1 2 3 1100 0 0
2      55.8226 1 2 3 1100 0 2.04204
3      55.8226 1 2 3 1100 0 6.12611
4      55.8226 1 2 3 1100 0 5.96903
5      55.8226 1 2 3 1100 0 1.5708
6      55.8226 1 2 3 1100 0 5.49779
7      55.8226 1 2 3 1100 0 5.18363
8      55.8226 1 2 3 1100 0 0.628319
9      55.8226 1 2 3 1100 0 4.39823
10      55.8226 1 2 3 1100 0 3.92699
11      55.8226 1 2 3 1100 0 2.82743
12      55.8226 1 2 3 1100 0 2.19911
13      55.8226 1 2 3 1100 0 3.61283
14      55.8226 1 2 3 1100 0 0.785398
15      55.8226 1 2 3 1100 0 1.25664
16      55.8226 1 2 3 1100 0 4.55531
17      55.8226 1 2 3 1100 0 4.71239
18      55.8226 1 2 3 1100 0 0.471239
19      55.8226 1 2 3 1100 0 1.41372
20      55.8226 1 2 3 1100 0 3.14159
21      55.8226 1 2 3 1100 0 5.34071
22      55.8226 1 2 3 1100 0 2.35619
23      55.8226 1 2 3 1100 0 3.76991
24      55.8226 1 2 3 1100 0 2.98451
25      55.8226 4 5 3 1100 0 0
26      55.8226 4 5 3 1100 0 2.04204
27      55.8226 4 5 3 1100 0 6.12611
28      55.8226 4 5 3 1100 0 5.96903
29      55.8226 4 5 3 1100 0 1.5708
30      55.8226 4 5 3 1100 0 5.49779
31      55.8226 4 5 3 1100 0 5.18363
32      55.8226 4 5 3 1100 0 0.628319
33      55.8226 4 5 3 1100 0 4.39823
34      55.8226 4 5 3 1100 0 3.92699
35      55.8226 4 5 3 1100 0 2.82743
36      55.8226 4 5 3 1100 0 2.19911
37      55.8226 4 5 3 1100 0 3.61283
38      55.8226 4 5 3 1100 0 0.785398
39      55.8226 4 5 3 1100 0 1.25664
40      55.8226 4 5 3 1100 0 4.55531
41      55.8226 4 5 3 1100 0 4.71239
42      55.8226 4 5 3 1100 0 0.471239
43      55.8226 4 5 3 1100 0 1.41372
44      55.8226 4 5 3 1100 0 3.14159
45      55.8226 4 5 3 1100 0 5.34071
46      55.8226 4 5 3 1100 0 2.35619
47      55.8226 4 5 3 1100 0 3.76991
48      55.8226 4 5 3 1100 0 2.98451
49      55.8226 6 7 3 1100 0 0
50      55.8226 6 7 3 1100 0 2.04204
51      55.8226 6 7 3 1100 0 6.12611
52      55.8226 6 7 3 1100 0 5.96903
53      55.8226 6 7 3 1100 0 1.5708
54      55.8226 6 7 3 1100 0 5.49779
55      55.8226 6 7 3 1100 0 5.18363
56      55.8226 6 7 3 1100 0 0.628319
57      55.8226 6 7 3 1100 0 4.39823
58      55.8226 6 7 3 1100 0 3.92699
59      55.8226 6 7 3 1100 0 2.82743
60      55.8226 6 7 3 1100 0 2.19911
61      55.8226 6 7 3 1100 0 3.61283
62      55.8226 6 7 3 1100 0 0.785398
63      55.8226 6 7 3 1100 0 1.25664
64      55.8226 6 7 3 1100 0 4.55531
65      55.8226 6 7 3 1100 0 4.71239
66      55.8226 6 7 3 1100 0 0.471239
67      55.8226 6 7 3 1100 0 1.41372
68      55.8226 6 7 3 1100 0 3.14159
69      55.8226 6 7 3 1100 0 5.34071
70      55.8226 6 7 3 1100 0 2.35619
71      55.8226 6 7 3 1100 0 3.76991
72      55.8226 6 7 3 1100 0 2.98451
73      55.8226 8 9 3 1100 0 0
74      55.8226 8 9 3 1100 0 2.04204
75      55.8226 8 9 3 1100 0 6.12611
76      55.8226 8 9 3 1100 0 5.96903
77      55.8226 8 9 3 1100 0 1.5708
78      55.8226 8 9 3 1100 0 5.49779
79      55.8226 8 9 3 1100 0 5.18363
80      55.8226 8 9 3 1100 0 0.628319
81      55.8226 8 9 3 1100 0 4.39823
82      55.8226 8 9 3 1100 0 3.92699
83      55.8226 8 9 3 1100 0 2.82743
84      55.8226 8 9 3 1100 0 2.19911
85      55.8226 8 9 3 1100 0 3.61283
86      55.8226 8 9 3 1100 0 0.785398
87      55.8226 8 9 3 1100 0 1.25664
88      55.8226 8 9 3 1100 0 4.55531
89      55.8226 8 9 3 1100 0 4.71239
90      55.8226 8 9 3 1100 0 0.471239
91      55.8226 8 9 3 1100 0 1.41372
92      55.8226 8 9 3 1100 0 3.14159
93      55.8226 8 9 3 1100 0 5.34071
94      55.8226 8 9 3 1100 0 2.35619
95      55.8226 8 9 3 1100 0 3.76991
96      55.8226 8 9 3 1100 0 2.98451
97      55.8226 10 11 3 1100 0 0
98      55.8226 10 11 3 1100 0 2.04204
99      55.8226 10 11 3 1100 0 6.12611
100      55.8226 10 11 3 1100 0 5.96903
101      55.8226 10 11 3 1100 0 1.5708
102      55.8226 10 11 3 1100 0 5.49779
103      55.8226 10 11 3 1100 0 5.18363
104      55.8226 10 11 3 1100 0 0.628319
105      55.8226 10 11 3 1100 0 4.39823
106      55.8226 10 11 3 1100 0 3.92699
107      55.8226 10 11 3 1100 0 2.82743
108      55.8226 10 11 3 1100 0 2.19911
109      55.8226 10 11 3 1100 0 3.61283
110      55.8226 10 11 3 1100 0 0.785398
111      55.8226 10 11 3 1100 0 1.25664
112      55.8226 10 11 3 1100 0 4.55531
113      55.8226 10 11 3 1100 0 4.71239
114      55.8226 10 11 3 1100 0 0.471239
115      55.8226 10 11 3 1100 0 1.41372
116      55.8226 10 11 3 1100 0 3.14159
117      55.8226 10 11 3 1100 0 5.34071
118      55.8226 10 11 3 1100 0 2.35619
119      55.8226 10 11 3 1100 0 3.76991
120      55.8226 10 11 3 1100 0 2.98451
121      55.8226 12 13 3 1100 0 0
122      55.8226 12 13 3 1100 0 2.04204
123      55.8226 12 13 3 1100 0 6.12611
124      55.8226 12 13 3 1100 0 5.96903
125      55.8226 12 13 3 1100 0 1.5708
126      55.8226 12 13 3 1100 0 5.49779
127      55.8226 12 13 3 1100 0 5.18363
128      55.8226 12 13 3 1100 0 0.628319
129      55.8226 12 13 3 1100 0 4.39823
130      55.8226 12 13 3 1100 0 3.92699
131      55.8226 12 13 3 1100 0 2.82743
132      55.8226 12 13 3 1100 0 2.19911
133      55.8226 12 13 3 1100 0 3.61283
134      55.8226 12 13 3 1100 0 0.785398
135      55.8226 12 13 3 1100 0 1.25664
136      55.8226 12 13 3 1100 0 4.55531
137      55.8226 12 13 3 1100 0 4.71239
138      55.8226 12 13 3 1100 0 0.471239
139      55.8226 12 13 3 1100 0 1.41372
140      55.8226 12 13 3 1100 0 3.14159
141      55.8226 12 13 3 1100 0 5.34071
142      55.8226 12 13 3 1100 0 2.35619
143      55.8226 12 13 3 1100 0 3.76991
144      55.8226 12 13 3 1100 0 2.98451
145      55.8226 14 15 3 1100 0 0
146      55.8226 14 15 3 1100 0 2.04204
147      55.8226 14 15 3 1100 0 6.12611
148      55.8226 14 15 3 1100 0 5.96903
149      55.8226 14 15 3 1100 0 1.5708
150      55.8226 14 15 3 1100 0 5.49779
151      55.8226 14 15 3 1100 0 5.18363
152      55.8226 14 15 3 1100 0 0.628319
153      55.8226 14 15 3 1100 0 4.39823
154      55.8226 14 15 3 1100 0 3.92699
155      55.8226 14 15 3 1100 0 2.82743
156      55.8226 14 15 3 1100 0 2.19911
157      55.8226 14 15 3 1100 0 3.61283
158      55.8226 14 15 3 1100 0 0.785398
159      55.8226 14 15 3 1100 0 1.25664
160      55.8226 14 15 3 1100 0 4.55531
161      55.8226 14 15 3 1100 0 4.71239
162      55.8226 14 15 3 1100 0 0.471239
163      55.8226 14 15 3 1100 0 1.41372
164      55.8226 14 15 3 1100 0 3.14159
165      55.8226 14 15 3 1100 0 5.34071
166      55.8226 14 15 3 1100 0 2.35619
167      55.8226 14 15 3 1100 0 3.76991
168      55.8226 14 15 3 1100 0 2.98451
169      55.8226 16 17 3 1100 0 0
170      55.8226 16 17 3 1100 0 2.04204
171      55.8226 16 17 3 1100 0 6.12611
172      55.8226 16 17 3 1100 0 5.96903
173      55.8226 16 17 3 1100 0 1.5708
174      55.8226 16 17 3 1100 0 5.49779
175      55.8226 16 17 3 1100 0 5.18363
176      55.8226 16 17 3 1100 0 0.628319
177      55.8226 16 17 3 1100 0 4.39823
178      55.8226 16 17 3 1100 0 3.92699
179      55.8226 16 17 3 1100 0 2.82743
180      55.8226 16 17 3 1100 0 2.19911
181      55.8226 16 17 3 1100 0 3.61283
182      55.8226 16 17 3 1100 0 0.785398
183      55.8226 16 17 3 1100 0 1.25664
184      55.8226 16 17 3 1100 0 4.55531
185      55.8226 16 17 3 1100 0 4.71239
186      55.8226 16 17 3 1100 0 0.471239
187      55.8226 16 17 3 1100 0 1.41372
188      55.8226 16 17 3 1100 0 3.14159
189      55.8226 16 17 3 1100 0 5.34071
190      55.8226 16 17 3 1100 0 2.35619
191      55.8226 16 17 3 1100 0 3.76991
192      55.8226 16 17 3 1100 0 2.98451

# Format of trapezoid gradients:
# id amplitude rise flat fall delay
# ..      Hz/m   us   us   us    us
[TRAP]
 1       444444  80 3000  80 1020
 2      -565972 100  800 100   0
 3      -555556 100  800 100   0
 4      -795866 140  720 140   0
 5       312500  60 3200  60 290
 6  1.02041e+06 180 1780 180   0
 7       555556 100  800 100   0
 8  1.01781e+06 180 1130 180   0
 9      -551215 100  800 100   0
10       551215 100  800 100   0
11      -546875 100  800 100   0
12       546875 100  800 100   0
13      -542535 100  800 100   0
14       542535 100  800 100   0
15      -538194 100  800 100   0
16       538194 100  800 100   0
17      -533854 100  800 100   0
18       533854 100  800 100   0
19      -529514 100  800 100   0
20       529514 100  800 100   0
21      -525174 100  800 100   0
22       525174 100  800 100   0
23      -520833 100  800 100   0
24       520833 100  800 100   0
25      -516493 100  800 100   0
26       516493 100  800 100   0
27      -512153 100  800 100   0
28       512153 100  800 100   0
29      -507812 100  800 100   0
30       507812 100  800 100   0
31      -503472 100  800 100   0
32       503472 100  800 100   0
33      -499132 100  800 100   0
34       499132 100  800 100   0
35      -494792 100  800 100   0
36       494792 100  800 100   0
37      -490451 100  800 100   0
38       490451 100  800 100   0
39      -486111 100  800 100   0
40       486111 100  800 100   0
41      -481771 100  800 100   0
42       481771 100  800 100   0
43      -477431 100  800 100   0
44       477431 100  800 100   0
45      -473090 100  800 100   0
46       473090 100  800 100   0
47      -468750 100  800 100   0
48       468750 100  800 100   0
49      -464410 100  800 100   0
50       464410 100  800 100   0
51      -460069 100  800 100   0
52       460069 100  800 100   0
53      -455729 100  800 100   0
54       455729 100  800 100   0
55      -451389 100  800 100   0
56       451389 100  800 100   0
57      -447049 100  800 100   0
58       447049 100  800 100   0
59      -442708 100  800 100   0
60       442708 100  800 100   0
61      -438368 100  800 100   0
62       438368 100  800 100   0
63      -434028 100  800 100   0
64       434028 100  800 100   0
65      -429688 100  800 100   0
66       429688 100  800 100   0
67      -425347 100  800 100   0
68       425347 100  800 100   0
69      -421007 100  800 100   0
70       421007 100  800 100   0
71      -416667 100  800 100   0
72       416667 100  800 100   0
73      -412326 100  800 100   0
74       412326 100  800 100   0
75      -407986 100  800 100   0
76       407986 100  800 100   0
77      -403646 100  800 100   0
78       403646 100  800 100   0
79      -399306 100  800 100   0
80       399306 100  800 100   0
81      -394965 100  800 100   0
82       394965 100  800 100   0
83      -390625 100  800 100   0
84       390625 100  800 100   0
85      -386285 100  800 100   0
86       386285 100  800 100   0
87      -381944 100  800 100   0
88       381944 100  800 100   0
89      -377604 100  800 100   0
90       377604 100  800 100   0
91      -373264 100  800 100   0
92       373264 100  800 100   0
93      -368924 100  800 100   0
94       368924 100  800 100   0
95      -364583 100  800 100   0
96       364583 100  800 100   0
97      -360243 100  800 100   0
98       360243 100  800 100   0
99      -355903 100  800 100   0
100       355903 100  800 100   0
101      -351562 100  800 100   0
102       351562 100  800 100   0
103      -347222 100  800 100   0
104       347222 100  800 100   0
105      -342882 100  800 100   0
106       342882 100  800 100   0
107      -338542 100  800 100   0
108       338542 100  800 100   0
109      -334201 100  800 100   0
110       334201 100  800 100   0
111      -329861 100  800 100   0
112       329861 100  800 100   0
113      -325521 100  800 100   0
114       325521 100  800 100   0
115      -321181 100  800 100   0
116       321181 100  800 100   0
117      -316840 100  800 100   0
118       316840 100  800 100   0
119      -312500 100  800 100   0
120       312500 100  800 100   0
121      -308160 100  800 100   0
122       308160 100  800 100   0
123      -303819 100  800 100   0
124       303819 100  800 100   0
125      -299479 100  800 100   0
126       299479 100  800 100   0
127      -295139 100  800 100   0
128       295139 100  800 100   0
129      -290799 100  800 100   0
130       290799 100  800 100   0
131      -286458 100  800 100   0
132       286458 100  800 100   0
133      -282118 100  800 100   0
134       282118 100  800 100   0
135      -277778 100  800 100   0
136       277778 100  800 100   0
137      -273438 100  800 100   0
138       273438 100  800 100   0
139      -269097 100  800 100   0
140       269097 100  800 100   0
141      -264757 100  800 100   0
142       264757 100  800 100   0
143      -260417 100  800 100   0
144       260417 100  800 100   0
145      -256076 100  800 100   0
146       256076 100  800 100   0
147      -251736 100  800 100   0
148       251736 100  800 100   0
149      -247396 100  800 100   0
150       247396 100  800 100   0
151      -243056 100  800 100   0
152       243056 100  800 100   0
153      -238715 100  800 100   0
154       238715 100  800 100   0
155      -234375 100  800 100   0
156       234375 100  800 100   0
157      -230035 100  800 100   0
158       230035 100  800 100   0
159      -225694 100  800 100   0
160       225694 100  800 100   0
161      -221354 100  800 100   0
162       221354 100  800 100   0
163      -217014 100  800 100   0
164       217014 100  800 100   0
165      -212674 100  800 100   0
166       212674 100  800 100   0
167      -208333 100  800 100   0
168       208333 100  800 100   0
169      -203993 100  800 100   0
170       203993 100  800 100   0
171      -199653 100  800 100   0
172       199653 100  800 100   0
173      -195312 100  800 100   0
174       195312 100  800 100   0
175      -190972 100  800 100   0
176       190972 100  800 100   0
177      -186632 100  800 100   0
178       186632 100  800 100   0
179      -182292 100  800 100   0
180       182292 100  800 100   0
181      -177951 100  800 100   0
182       177951 100  800 100   0
183      -173611 100  800 100   0
184       173611 100  800 100   0
185      -169271 100  800 100   0
186       169271 100  800 100   0
187      -164931 100  800 100   0
188       164931 100  800 100   0
189      -160590 100  800 100   0
190       160590 100  800 100   0
191      -156250 100  800 100   0
192       156250 100  800 100   0
193      -151910 100  800 100   0
194       151910 100  800 100   0
195      -147569 100  800 100   0
196       147569 100  800 100   0
197      -143229 100  800 100   0
198       143229 100  800 100   0
199      -138889 100  800 100   0
200       138889 100  800 100   0
201      -134549 100  800 100   0
202       134549 100  800 100   0
203      -130208 100  800 100   0
204       130208 100  800 100   0
205      -125868 100  800 100   0
206       125868 100  800 100   0
207      -121528 100  800 100   0
208       121528 100  800 100   0
209      -117188 100  800 100   0
210       117188 100  800 100   0
211      -112847 100  800 100   0
212       112847 100  800 100   0
213      -108507 100  800 100   0
214       108507 100  800 100   0
215      -104167 100  800 100   0
216       104167 100  800 100   0
217     -99826.4 100  800 100   0
218      99826.4 100  800 100   0
219     -95486.1 100  800 100   0
220      95486.1 100  800 100   0
221     -91145.8 100  800 100   0
222      91145.8 100  800 100   0
223     -86805.6 100  800 100   0
224      86805.6 100  800 100   0
225     -82465.3 100  800 100   0
226      82465.3 100  800 100   0
227       -78125 100  800 100   0
228        78125 100  800 100   0
229     -73784.7 100  800 100   0
230      73784.7 100  800 100   0
231     -69444.4 100  800 100   0
232      69444.4 100  800 100   0
233     -65104.2 100  800 100   0
234      65104.2 100  800 100   0
235     -60763.9 100  800 100   0
236      60763.9 100  800 100   0
237     -56423.6 100  800 100   0
238      56423.6 100  800 100   0
239     -52083.3 100  800 100   0
240      52083.3 100  800 100   0
241     -47743.1 100  800 100   0
242      47743.1 100  800 100   0
243     -43402.8 100  800 100   0
244      43402.8 100  800 100   0
245     -39062.5 100  800 100   0
246      39062.5 100  800 100   0
247     -34722.2 100  800 100   0
248      34722.2 100  800 100   0
249     -30381.9 100  800 100   0
250      30381.9 100  800 100   0
251     -26041.7 100  800 100   0
252      26041.7 100  800 100   0
253     -21701.4 100  800 100   0
254      21701.4 100  800 100   0
255     -17361.1 100  800 100   0
256      17361.1 100  800 100   0
257     -13020.8 100  800 100   0
258      13020.8 100  800 100   0
259     -8680.56 100  800 100   0
260      8680.56 100  800 100   0
261     -4340.28 100  800 100   0
262      4340.28 100  800 100   0
263            0 100  800 100   0
264           -0 100  800 100   0

# Format of ADC events:
# id num dwell delay freq phase
# ..  ..    ns    us   Hz   rad
[ADC]
1 256 12500 350 0 0
2 256 12500 350 0 2.04204
3 256 12500 350 0 6.12611
4 256 12500 350 0 5.96903
5 256 12500 350 0 1.5708
6 256 12500 350 0 5.49779
7 256 12500 350 0 5.18363
8 256 12500 350 0 0.628319
9 256 12500 350 0 4.39823
10 256 12500 350 0 3.92699
11 256 12500 350 0 2.82743
12 256 12500 350 0 2.19911
13 256 12500 350 0 3.61283
14 256 12500 350 0 0.785398
15 256 12500 350 0 1.25664
16 256 12500 350 0 4.55531
17 256 12500 350 0 4.71239
18 256 12500 350 0 0.471239
19 256 12500 350 0 1.41372
20 256 12500 350 0 3.14159
21 256 12500 350 0 5.34071
22 256 12500 350 0 2.35619
23 256 12500 350 0 3.76991
24 256 12500 350 0 2.98451

# Sequence Shapes
[SHAPES]

shape_id 1
num_samples 2400
0.0005352
0.0010821
0.0010996
0.0011192
0.0011409
0.0011648
0.0011909
0.001219
0.0012491
0.0012811
0.0013148
0.0013501
0.0013869
0.0014249
0.001464
0.0015037
0.0015441
0.0015847
0.0016253
0.0016654
0.0017049
0.0017434
0.0017803
0.0018155
0.0018484
0.0018788
0.001906
0.0019298
0.0019496
0.001965
0.0019755
0.0019809
0.0019803
0.0019736
0.0019601
0.0019394
0.0019112
0.001875
0.00183
0.0017764
0.0017132
0.0016404
0.0015575
0.0014639
0.0013596
0.0012441
0.0011172
0.0009784
0.0008278
0.0006648
0.0004895
0.0003016
0.000101
-0.0001123
-0.0003385
-0.0005775
-0.0008293
-0.001094
-0.0013714
-0.0016611
-0.0019634
-0.0022777
-0.002604
-0.0029418
-0.0032909
-0.0036508
-0.0040212
-0.0044015
-0.0047914
-0.00519
-0.0055971
-0.0060119
-0.0064336
-0.0068619
-0.0072956
0.0001102
0.008177
0.0086228
0.0090712
0.009521
0.0099714
0.0104214
0.0108702
0.0113166
0.0117599
0.0121989
0.0126327
0.0130601
0.0134803
0.0138922
0.0142946
0.0146868
0.0150675
0.0154358
0.0157907
0.0161312
0.0164563
0.0167651
0.0170565
0.0173299
0.0175841
0.0178184
0.018032
0.0182241
0.0183939
0.0185406
0.0186638
0.0187626
0.0188366
0.0188852
0.0189078
0.0189043
0.0188739
0.0188165
0.018732
0.0186198
0.01848
0.0183125
0.0181172
0.0178941
0.0176433
0.017365
0.0170594
0.0167267
0.0163673
0.0159815
0.0155699
0.0151327
0.0146709
0.0141848
0.0136751
0.0131427
0.0125882
0.0120126
0.0114167
0.0108013
0.0101676
0.0095166
0.0088492
0.0081666
0.00747
0.0067605
0.0060392
0.0053074
0.0045666
0.0038177
0.0030622
0.0023013
0.0015364
0.0007689
0
-0.0007689
-0.0015364
-0.0023013
-0.0030622
-0.0038177
-0.0045666
-0.0053074
-0.0060392
-0.0067605
-0.00747
-0.0081666
-0.0088492
-0.0095166
-0.0101676
-0.0108013
-0.0114167
-0.0120126
-0.0125882
-0.0131427
-0.0136751
-0.0141848
-0.0146709
-0.0151327
-0.0155699
-0.0159815
-0.0163673
-0.0167267
-0.0170594
-0.017365
-0.0176433
-0.0178941
-0.0181172
-0.0183125
-0.01848
-0.0186198
-0.018732
-0.0188165
-0.0188739
-0.0189043
-0.0189078
-0.0188852
-0.0188366
-0.0187626
-0.0186638
-0.0185406
-0.0183939
-0.0182241
-0.018032
-0.0178184
-0.0175841
-0.0173299
-0.0170565
-0.0167651
-0.0164563
-0.0161312
-0.0157907
-0.0154358
-0.0150675
-0.0146868
-0.0142946
-0.0138922
-0.0134803
-0.0130601
-0.0126327
-0.0121989
-0.0117599
-0.0113166
-0.0108702
-0.0104214
-0.0099714
-0.009521
-0.0090712
-0.0086228
-0.008177
-0.0001102
0.0072956
0.0068619
0.0064336
0.0060119
0.0055971
0.00519
0.0047914
0.0044015
0.0040212
0.0036508
0.0032909
0.0029418
0.002604
0.0022777
0.0019634
0.0016611
0.0013714
0.001094
0.0008293
0.0005775
0.0003385
0.0001123
-0.000101
-0.0003016
-0.0004895
-0.0006648
-0.0008278
-0.0009784
-0.0011172
-0.0012441
-0.0013596
-0.0014639
-0.0015575
-0.0016404
-0.0017132
-0.0017764
-0.00183
-0.001875
-0.0019112
-0.0019394
-0.0019601
-0.0019736
-0.0019803
-0.0019809
-0.0019755
-0.001965
-0.0019496
-0.0019298
-0.001906
-0.0018788
-0.0018484
-0.0018155
